Freq[Hz]     dBSPL  Phase[Deg]
5.00000    -17.969     8.433
5.07273    -17.892    10.566
5.14651    -17.833    12.834
5.22137    -17.827    15.479
5.29732    -17.821    18.123
5.37437    -17.815    20.767
5.45254    -17.808    23.412
5.53185    -17.785    26.554
5.61231    -17.743    30.222
5.69394    -17.702    33.891
5.77676    -17.661    37.560
5.86079    -17.617    41.234
5.94604    -17.416    45.234
6.03252    -17.215    49.233
6.12027    -17.014    53.233
6.20929    -16.813    57.233
6.29961    -16.561    60.631
6.39124    -16.298    63.895
6.48420    -16.034    67.160
6.57851    -15.771    70.424
6.67420    -15.609    73.484
6.77128    -15.463    76.510
6.86977    -15.318    79.536
6.96969    -15.186    82.703
7.07107    -15.162    86.945
7.17392    -15.138    91.186
7.27827    -15.114    95.428
7.38413    -14.995   100.722
7.49154    -14.803   106.828
7.60050    -14.611   112.935
7.71105    -14.356   118.957
7.82321    -13.830   124.609
7.93701    -13.303   130.261
8.05245    -12.776   135.913
8.16958    -12.276   139.682
8.28841    -11.776   143.381
8.40896    -11.277   147.080
8.53128    -11.120   150.894
8.65537    -11.006   154.722
8.78126    -10.893   158.550
8.90899    -11.010   167.131
9.03857    -11.142   176.024
9.17004    -11.128  -174.558
9.30342     -9.954  -160.956
9.43874     -8.780  -147.355
9.57603     -7.236  -136.907
9.71532     -5.127  -131.277
9.85663     -3.018  -125.647
10.0000     -1.208  -124.649
10.1455      0.518  -124.942
10.2930      2.120  -125.916
10.4427      3.374  -128.796
10.5946      4.628  -131.675
10.7487      5.583  -135.694
10.9051      6.479  -139.940
11.0637      7.220  -144.620
11.2246      7.797  -149.759
11.3879      8.309  -155.050
11.5535      8.586  -160.890
11.7216      8.856  -166.742
11.8921      8.826  -173.223
12.0650      8.796  -179.703
12.2405      8.476   173.217
12.4186      8.119   166.060
12.5992      7.457   158.155
12.7825      6.727   150.085
12.9684      5.647   140.764
13.1570      4.485   131.153
13.3484      2.930   118.734
13.5426      1.311   105.859
13.7395     -0.363    86.273
13.9394     -1.871    65.806
14.1421     -2.103    40.611
14.3478     -1.883    17.730
14.5565     -0.690    -0.175
14.7683      0.570   -13.700
14.9831      1.881   -23.842
15.2010      3.026   -30.915
15.4221      4.102   -37.202
15.6464      4.999   -42.339
15.8740      5.750   -47.052
16.1049      6.383   -51.427
16.3392      6.724   -54.585
16.5768      6.962   -56.602
16.8179      7.068   -57.026
17.0626      7.308   -53.898
17.3107      7.856   -49.522
17.5625      8.846   -43.946
17.8180     10.470   -41.194
18.0771     12.171   -40.923
18.3401     13.871   -43.183
18.6068     15.297   -48.061
18.8775     16.402   -53.774
19.1521     17.216   -59.576
19.4306     17.730   -64.888
19.7133     17.895   -68.085
20.0000     17.980   -68.083
20.2909     18.282   -65.154
20.5860     19.027   -60.325
20.8855     20.386   -55.764
21.1893     22.144   -54.971
21.4975     23.818   -57.287
21.8102     25.267   -61.560
22.1274     26.436   -66.824
22.4492     27.332   -72.192
22.7758     28.014   -76.946
23.1071     28.581   -80.616
23.4432     29.166   -83.136
23.7841     29.895   -85.032
24.1301     30.779   -87.244
24.4811     31.749   -90.335
24.8372     32.713   -94.374
25.1984     33.604   -99.057
25.5649     34.401  -103.927
25.9368     35.123  -108.570
26.3141     35.813  -112.733
26.6968     36.522  -116.383
27.0851     37.288  -119.668
27.4791     38.122  -122.822
27.8788     39.014  -126.074
28.2843     39.934  -129.548
28.6957     40.856  -133.279
29.1131     41.754  -137.229
29.5365     42.611  -141.306
29.9661     43.421  -145.390
30.4020     44.188  -149.385
30.8442     44.927  -153.253
31.2929     45.650  -157.078
31.7480     46.357  -160.945
32.2098     47.042  -164.897
32.6783     47.689  -168.909
33.1536     48.306  -172.903
33.6359     48.903  -176.847
34.1251     49.491   179.247
34.6215     50.072   175.335
35.1250     50.645   171.401
35.6359     51.205   167.463
36.1543     51.750   163.554
36.6802     52.283   159.700
37.2137     52.804   155.932
37.7550     53.316   152.257
38.3041     53.818   148.673
38.8613     54.315   145.124
39.4265     54.800   141.574
40.0000     55.268   138.030
40.5818     55.718   134.515
41.1721     56.155   131.023
41.7710     56.584   127.519
42.3785     57.001   123.998
42.9949     57.410   120.505
43.6203     57.825   117.056
44.2548     58.258   113.586
44.8985     58.704   110.009
45.5515     59.151   106.339
46.2141     59.592   102.663
46.8863     60.038    99.038
47.5683     60.491    95.415
48.2602     60.945    91.738
48.9621     61.386    88.053
49.6743     61.822    84.412
50.3968     62.260    80.751
51.1299     62.695    76.984
51.8736     63.115    73.128
52.6281     63.526    69.225
53.3936     63.933    65.250
54.1702     64.334    61.183
54.9581     64.729    57.027
55.7575     65.113    52.764
56.5685     65.477    48.437
57.3914     65.823    44.096
58.2261     66.147    39.712
59.0730     66.444    35.362
59.9323     66.740    31.068
60.8040     67.039    26.598
61.6884     67.311    22.027
62.5857     67.593    17.587
63.4960     67.916    12.862
64.4196     68.199     7.788
65.3566     68.434     2.955
66.3073     68.683    -1.732
67.2717     68.905    -6.505
68.2502     69.092   -11.135
69.2429     69.266   -15.756
70.2501     69.410   -20.459
71.2719     69.536   -25.186
72.3086     69.661   -30.002
73.3603     69.786   -34.874
74.4274     69.908   -39.794
75.5099     70.013   -44.588
76.6083     70.114   -49.207
77.7226     70.198   -53.744
78.8531     70.259   -58.225
80.0000     70.302   -62.679
81.1636     70.347   -67.188
82.3442     70.393   -71.798
83.5419     70.453   -76.378
84.7570     70.526   -80.900
85.9899     70.600   -85.287
87.2406     70.664   -89.551
88.5096     70.710   -93.701
89.7970     70.743   -97.869
91.1031     70.771  -102.105
92.4282     70.814  -106.449
93.7726     70.880  -110.892
95.1366     70.974  -115.389
96.5204     71.079  -119.906
97.9243     71.186  -124.382
99.3486     71.286  -128.806
100.794     71.385  -133.181
102.260     71.481  -137.601
103.747     71.570  -142.017
105.256     71.658  -146.547
106.787     71.732  -151.183
108.340     71.786  -155.757
109.916     71.862  -160.324
111.515     71.919  -164.789
113.137     72.000  -169.103
114.783     72.095  -173.513
116.452     72.181  -178.035
118.146     72.282   177.386
119.865     72.384   172.818
121.608     72.484   168.329
123.377     72.576   163.941
125.171     72.656   159.532
126.992     72.741   154.870
128.839     72.826   149.995
130.713     72.898   144.987
132.615     72.929   140.107
134.543     72.935   135.534
136.500     72.965   131.049
138.486     72.997   126.575
140.500     72.945   121.743
142.544     72.856   117.201
144.617     72.829   113.356
146.721     72.802   109.624
148.855     72.795   105.685
151.020     72.780   101.755
153.217     72.767    98.031
155.445     72.755    94.391
157.706     72.749    91.093
160.000     72.773    87.610
162.327     72.814    84.072
164.688     72.863    80.782
167.084     72.893    77.287
169.514     72.908    73.593
171.980     72.883    69.461
174.481     72.784    66.084
177.019     72.775    63.678
179.594     72.818    60.843
182.206     72.810    57.419
184.856     72.799    54.344
187.545     72.846    51.771
190.273     72.875    48.730
193.041     72.802    45.284
195.849     72.742    42.529
198.697     72.747    39.817
201.587     72.722    37.122
204.520     72.673    34.745
207.494     72.676    32.396
210.512     72.656    29.819
213.574     72.608    27.544
216.681     72.606    25.440
219.833     72.627    23.034
223.030     72.633    20.980
226.274     72.648    18.821
229.565     72.626    16.318
232.905     72.634    13.933
236.292     72.616    11.888
239.729     72.610     9.994
243.216     72.606     7.811
246.754     72.566     5.466
250.343     72.398     3.685
253.984     72.397     2.733
257.678     72.477     1.100
261.426     72.569    -0.985
265.229     72.566    -3.236
269.087     72.476    -5.090
273.001     72.486    -6.947
276.972     72.415    -8.474
281.000     72.413    -9.220
285.088     72.566   -11.109
289.234     72.603   -13.293
293.441     72.644   -15.635
297.709     72.582   -18.150
302.040     72.491   -20.325
306.433     72.420   -22.226
310.890     72.380   -24.684
315.412     72.254   -26.316
320.000     72.234   -28.322
324.655     72.023   -30.656
329.377     71.800   -32.175
334.168     71.628   -32.660
339.028     71.631   -34.049
343.959     71.549   -36.374
348.962     71.441   -38.259
354.038     71.211   -40.036
359.188     71.041   -41.061
364.412     70.831   -43.427
369.713     70.615   -44.132
375.090     70.462   -45.974
380.546     70.040   -47.407
386.081     69.810   -47.877
391.697     69.470   -48.001
397.394     69.335   -48.144
403.175     69.189   -49.019
409.039     68.948   -48.923
414.989     68.833   -49.124
421.025     68.736   -49.706
427.149     68.569   -49.579
433.362     68.692   -49.886
439.665     68.678   -51.524
446.060     68.586   -53.214
452.548     68.462   -55.070
459.131     68.217   -55.660
465.809     68.213   -57.130
472.584     68.061   -58.319
479.458     68.125   -59.613
486.432     67.981   -62.223
493.507     67.780   -63.108
500.686     67.838   -64.609
507.968     67.753   -66.928
515.357     67.585   -68.903
522.853     67.557   -70.822
530.458     67.510   -73.127
538.174     67.356   -75.868
546.002     67.082   -77.859
553.943     66.862   -79.260
562.001     66.682   -80.600
570.175     66.443   -81.286
578.469     66.295   -81.762
586.883     66.147   -82.075
595.419     66.043   -82.001
604.080     66.013   -81.694
612.866     66.086   -81.393
621.780     66.253   -81.269
630.824     66.502   -81.586
640.000     66.812   -82.438
649.309     67.181   -83.978
658.753     67.552   -85.905
668.335     67.935   -88.729
678.056     68.301   -92.016
687.919     68.635   -95.928
697.925     68.913  -100.296
708.077     69.140  -105.144
718.376     69.306  -110.322
728.825     69.395  -115.957
739.426     69.413  -121.872
750.181     69.347  -128.045
761.093     69.184  -134.496
772.163     68.925  -141.010
783.394     68.547  -147.646
794.789     68.035  -154.541
806.349     67.397  -161.278
818.078     66.575  -167.944
829.977     65.576  -174.292
842.050     64.322   179.962
854.298     62.760   175.411
866.724     60.820   173.164
879.330     58.389   175.548
892.120     55.760  -172.748
905.097     54.546  -149.042
918.262     56.037  -127.035
931.618     58.608  -117.738
945.169     60.880  -116.988
958.917     62.668  -120.640
972.864     64.083  -126.402
987.015     65.173  -133.305
1001.37     66.000  -141.113
1015.94     66.612  -149.343
1030.71     67.021  -157.791
1045.71     67.262  -166.539
1060.92     67.355  -175.482
1076.35     67.282   175.685
1092.00     67.070   166.912
1107.89     66.706   158.187
1124.00     66.185   149.669
1140.35     65.509   141.582
1156.94     64.641   133.920
1173.77     63.603   127.112
1190.84     62.368   121.700
1208.16     60.946   118.282
1225.73     59.425   117.888
1243.56     58.044   121.982
1261.65     57.313   129.648
1280.00     57.560   137.696
1298.62     58.532   142.000
1317.51     59.742   141.362
1336.67     60.879   136.792
1356.11     61.770   129.601
1375.84     62.399   120.436
1395.85     62.750   109.901
1416.15     62.819    98.381
1436.75     62.592    86.376
1457.65     62.055    73.789
1478.85     61.152    61.155
1500.36     59.804    48.747
1522.19     57.952    37.247
1544.33     55.380    28.477
1566.79     51.981    26.411
1589.58     48.644    41.134
1612.70     48.783    66.449
1636.16     51.399    74.994
1659.95     53.567    69.116
1684.10     54.858    57.167
1708.60     55.403    42.736
1733.45     55.372    27.435
1758.66     54.792    12.042
1784.24     53.752    -2.209
1810.19     52.359   -14.235
1836.52     50.876   -21.804
1863.24     49.895   -25.050
1890.34     49.912   -27.733
1917.83     50.739   -34.086
1945.73     51.788   -45.779
1974.03     52.605   -60.808
2002.74     53.101   -77.415
2031.87     53.226   -93.950
2061.43     52.978  -109.033
2091.41     52.483  -121.801
2121.83     51.939  -131.154
2152.69     51.588  -137.593
2184.01     51.620  -143.243
2215.77     51.814  -149.694
2248.00     51.843  -157.989
2280.70     51.478  -166.463
2313.87     50.609  -173.085
2347.53     49.369  -174.918
2381.68     48.150  -169.389
2416.32     48.016  -159.948
2451.46     49.023  -151.071
2487.12     50.510  -146.282
2523.30     52.201  -144.902
2560.00     53.961  -146.819
2597.24     55.624  -151.958
2635.01     56.993  -159.800
2673.34     57.948  -169.228
2712.23     58.481  -178.874
2751.68     58.628   172.495
2791.70     58.563   165.610
2832.31     58.437   160.549
2873.50     58.425   156.804
2915.30     58.502   153.377
2957.70     58.626   149.962
3000.72     58.751   146.554
3044.37     58.889   143.611
3088.65     59.085   140.946
3133.58     59.390   138.455
3179.16     59.802   135.334
3225.40     60.279   131.150
3272.31     60.692   125.401
3319.91     60.909   118.585
3368.20     60.812   111.512
3417.19     60.410   105.444
3466.89     59.831   101.747
3517.32     59.382   100.610
3568.48     59.273   100.172
3620.39     59.342    98.643
3673.05     59.335    96.170
3726.47     59.237    94.354
3780.67     59.209    93.112
3835.67     59.258    91.574
3891.46     59.185    90.164
3948.06     59.146    90.288
4005.49     59.445    91.413
4063.75     60.086    91.024
4122.86     60.770    88.527
4182.82     61.439    84.405
4243.66     61.970    77.960
4305.39     62.092    70.057
4368.01     61.722    63.203
4431.55     61.197    59.101
4496.01     60.832    56.375
4561.40     60.527    53.691
4627.75     60.185    51.228
4695.06     59.800    49.220
4763.35     59.327    48.646
4832.64     59.181    49.858
4902.93     59.371    49.387
4974.24     59.446    47.512
5046.60     59.609    45.929
5120.00     59.818    41.443
5194.47     59.339    36.006
5270.03     58.616    36.084
5346.68     58.710    37.625
5424.45     58.983    35.101
5503.35     58.949    31.792
5583.40     58.819    28.635
5664.61     58.603    25.696
5747.01     58.388    23.024
5830.60     58.117    19.730
5915.41     57.524    16.665
6001.45     56.702    17.406
6088.74     56.596    21.782
6177.30     57.111    21.909
6267.15     57.239    19.126
6358.31     57.089    17.818
6450.80     57.152    18.115
6544.62     57.540    16.487
6639.82     57.672    12.954
6736.40     57.685    10.271
6834.38     57.764     5.748
6933.79     57.313    -0.348
7034.64     56.188    -2.723
7136.96     55.299     0.269
7240.77     54.988     4.849
7346.09     55.102     8.621
7452.94     55.560    12.132
7561.35     56.403    11.196
7671.33     56.842     6.959
7782.91     56.874     1.766
7896.12     56.645    -2.829
8010.97     55.841    -8.430
8127.49     54.538    -8.243
8245.71     53.226    -3.533
8365.65     52.787     7.155
8487.33     53.816    18.696
8610.78     55.709    15.051
8736.03     56.238     8.210
8863.09     56.310    -0.695
8992.01     55.756    -9.500
9122.80     54.334   -16.274
9255.50     52.827   -17.911
9390.12     51.754   -16.136
9526.70     50.776   -13.587
9665.27     50.248   -12.970
9805.86     49.318    -9.213
9948.49     49.286    -2.006
10093.2     49.451    -2.094
10240.0     49.769     0.820
10388.9     49.938    -0.911
10540.1     49.741     1.921
10693.4     50.407     0.035
10848.9     50.839    -3.534
11006.7     50.079   -12.379
11166.8     48.213   -10.400
11329.2     47.580    -2.273
11494.0     48.150     4.556
11661.2     48.576     5.608
11830.8     49.286     7.719
12002.9     49.839     4.046
12177.5     49.874    -2.487
12354.6     49.396    -3.814
12534.3     49.615    -3.812
12716.6     50.234    -7.437
12901.6     50.046   -15.473
13089.2     49.713   -21.563
13279.6     48.791   -26.679
13472.8     47.677   -28.662
13668.8     46.798   -28.322
13867.6     45.868   -25.619
14069.3     45.580   -19.789
14273.9     45.748   -18.010
14481.5     45.060   -16.214
14692.2     45.991    -9.072
14905.9     46.727   -17.875
15122.7     46.135   -27.695
15342.7     44.179   -31.486
15565.8     42.691   -24.339
15792.2     44.340   -10.880
16021.9     46.697   -44.672
16255.0     39.654   -73.319
16491.4     32.647   -33.816
16731.3     33.042    13.247
16974.7     37.683    25.091
17221.6     39.771    10.900
17472.1     38.982    16.920
17726.2     39.465    15.974
17984.0     40.654    16.510
18245.6     39.739     3.499
18511.0     39.514     8.867
18780.2     38.179     4.098
19053.4     39.034    13.258
19330.5     39.540     0.502
19611.7     38.404    -2.619
19897.0     38.720    -1.221
20186.4     39.379    -7.517
20480.0     38.361   -16.582
20777.9     38.237   -12.262
21080.1     38.249   -25.555
21386.7     35.412   -38.116
21697.8     32.187   -31.009
22013.4     30.559   -29.044
22333.6     29.085   -19.134
22658.4     30.799   -25.512
22988.0     30.893   -33.458
23322.4     30.886   -55.462
23661.6     30.900   -66.018
24005.8     25.984   -83.131
24355.0     24.492   -39.918
24709.2     29.043   -63.394
25068.6     25.311   -85.708
25433.2     26.003  -110.295
25803.2     24.666  -146.578
26178.5     20.608  -163.772
26559.3     23.991  -153.828
26945.6     23.771   167.294
27337.5     19.199   -31.252
27735.2     21.391   139.130
28138.6     27.662  -108.015
28547.9     27.534  -160.616
28963.1     24.788   178.671
29384.4     26.766   126.856
29811.8     20.359  -155.822
30245.4     19.555    45.329
30685.3     15.716   131.142
31131.7     16.843   -64.023
31584.5     16.842   -50.161
32043.9     15.370   -96.595
32510.0     18.347   151.115
32982.8     17.834   -40.701
33462.6     18.004    54.281
33949.3     19.966   139.529
34443.1     15.872  -163.063
34944.1     19.598    21.294
35452.4     17.520   172.535
35968.0     14.464   -20.438
36491.2     13.168  -130.223
37022.0     15.212   167.659
37560.5     15.219    59.945
38106.8     14.776   -91.716
38661.1     16.174    40.862
39223.4     16.251   -84.601
39793.9     15.247    50.073
