Freq[Hz]     dBSPL  Phase[Deg]
5.00000    -10.975    17.971
5.07273    -10.895    20.352
5.14651    -10.836    22.874
5.22137    -10.831    25.788
5.29732    -10.827    28.702
5.37437    -10.823    31.616
5.45254    -10.818    34.530
5.53185    -10.799    37.948
5.61231    -10.764    41.901
5.69394    -10.729    45.854
5.77676    -10.694    49.807
5.86079    -10.657    53.765
5.94604    -10.467    58.055
6.03252    -10.278    62.344
6.12027    -10.088    66.634
6.20929     -9.898    70.924
6.29961     -9.661    74.609
6.39124     -9.413    78.161
6.48420     -9.165    81.712
6.57851     -8.918    85.264
6.67420     -8.775    88.601
6.77128     -8.648    91.903
6.86977     -8.522    95.205
6.96969     -8.411    98.647
7.07107     -8.409   103.148
7.17392     -8.407   107.649
7.27827     -8.406   112.150
7.38413     -8.310   117.692
7.49154     -8.141   124.038
7.60050     -7.972   130.383
7.71105     -7.742   136.640
7.82321     -7.239   142.510
7.93701     -6.736   148.380
8.05245     -6.233   154.249
8.16958     -5.756   158.217
8.28841     -5.279   162.114
8.40896     -4.802   166.010
8.53128     -4.665   170.006
8.65537     -4.572   174.015
8.78126     -4.479   178.025
8.90899     -4.612  -173.224
9.03857     -4.760  -164.162
9.17004     -4.762  -154.574
9.30342     -3.600  -140.807
9.43874     -2.438  -127.040
9.57603     -0.904  -116.425
9.71532      1.198  -110.626
9.85663      3.300  -104.828
10.0000      5.107  -103.651
10.1455      6.833  -103.762
10.2930      8.435  -104.550
10.4427      9.694  -107.226
10.5946     10.953  -109.902
10.7487     11.917  -113.691
10.9051     12.822  -117.702
11.0637     13.575  -122.127
11.2246     14.167  -126.990
11.3879     14.696  -131.993
11.5535     14.991  -137.506
11.7216     15.282  -143.029
11.8921     15.274  -149.122
12.0650     15.266  -155.215
12.2405     14.970  -161.848
12.4186     14.636  -168.551
12.5992     13.998  -175.941
12.7825     13.292   176.516
12.9684     12.234   167.785
13.1570     11.094   158.776
13.3484      9.557   147.023
13.5426      7.954   134.825
13.7395      6.291   115.981
13.9394      4.791    96.266
14.1421      4.560    71.875
14.3478      4.777    49.812
14.5565      5.960    32.756
14.7683      7.203    20.095
14.9831      8.492    10.830
15.2010      9.604     4.641
15.4221     10.643    -0.763
15.6464     11.494    -5.025
15.8740     12.192    -8.881
16.1049     12.768   -12.411
16.3392     13.043   -14.768
16.5768     13.213   -16.008
16.8179     13.246   -15.689
17.0626     13.411   -11.875
17.3107     13.882    -6.848
17.5625     14.796    -0.659
17.8180     16.345     2.644
18.0771     17.974     3.432
18.3401     19.606     1.655
18.6068     20.971    -2.784
18.8775     22.021    -8.086
19.1521     22.788   -13.495
19.4306     23.262   -18.429
19.7133     23.399   -21.252
20.0000     23.467   -20.866
20.2909     23.761   -17.537
20.5860     24.507   -12.278
20.8855     25.879    -7.249
21.1893     27.662    -5.921
21.4975     29.371    -7.629
21.8102     30.862   -11.212
22.1274     32.080   -15.693
22.4492     33.031   -20.171
22.7758     33.769   -23.920
23.1071     34.392   -26.463
23.4432     35.031   -27.729
23.7841     35.806   -28.238
24.1301     36.727   -28.944
24.4811     37.721   -30.425
24.8372     38.692   -32.766
25.1984     39.574   -35.684
25.5649     40.342   -38.747
25.9368     41.016   -41.565
26.3141     41.640   -43.912
26.6968     42.267   -45.776
27.0851     42.937   -47.324
27.4791     43.664   -48.807
27.8788     44.440   -50.461
28.2843     45.243   -52.409
28.6957     46.046   -54.682
29.1131     46.828   -57.232
29.5365     47.574   -59.952
29.9661     48.279   -62.710
30.4020     48.948   -65.390
30.8442     49.597   -67.937
31.2929     50.238   -70.417
31.7480     50.867   -72.904
32.2098     51.478   -75.430
32.6783     52.054   -77.958
33.1536     52.599   -80.418
33.6359     53.123   -82.780
34.1251     53.633   -85.065
34.6215     54.130   -87.330
35.1250     54.615   -89.608
35.6359     55.084   -91.892
36.1543     55.538   -94.161
36.6802     55.979   -96.393
37.2137     56.411   -98.558
37.7550     56.840  -100.636
38.3041     57.270  -102.617
38.8613     57.703  -104.537
39.4265     58.135  -106.405
40.0000     58.558  -108.198
40.5818     58.970  -109.869
41.1721     59.372  -111.408
41.7710     59.767  -112.852
42.3785     60.144  -114.196
42.9949     60.505  -115.418
43.6203     60.862  -116.524
44.2548     61.224  -117.603
44.8985     61.587  -118.775
45.5515     61.941  -120.053
46.2141     62.284  -121.368
46.8863     62.629  -122.674
47.5683     62.987  -124.014
48.2602     63.354  -125.423
48.9621     63.718  -126.829
49.6743     64.089  -128.148
50.3968     64.471  -129.410
51.1299     64.859  -130.682
51.8736     65.234  -131.932
52.6281     65.598  -133.120
53.3936     65.954  -134.282
54.1702     66.297  -135.458
54.9581     66.626  -136.667
55.7575     66.938  -137.945
56.5685     67.226  -139.261
57.3914     67.493  -140.567
58.2261     67.740  -141.883
59.0730     67.957  -143.116
59.9323     68.175  -144.237
60.8040     68.393  -145.474
61.6884     68.577  -146.762
62.5857     68.765  -147.894
63.4960     68.989  -149.313
64.4196     69.170  -151.106
65.3566     69.309  -152.689
66.3073     69.473  -154.141
67.2717     69.628  -155.648
68.2502     69.764  -156.923
69.2429     69.901  -158.042
70.2501     70.010  -159.058
71.2719     70.095  -159.922
72.3086     70.160  -160.748
73.3603     70.208  -161.584
74.4274     70.236  -162.496
75.5099     70.244  -163.351
76.6083     70.259  -164.085
77.7226     70.275  -164.720
78.8531     70.287  -165.191
80.0000     70.289  -165.459
81.1636     70.287  -165.600
82.3442     70.268  -165.723
83.5419     70.244  -165.800
84.7570     70.226  -165.885
85.9899     70.216  -165.911
87.2406     70.218  -165.819
88.5096     70.226  -165.507
89.7970     70.234  -165.016
91.1031     70.233  -164.382
92.4282     70.233  -163.710
93.7726     70.242  -163.086
95.1366     70.271  -162.515
96.5204     70.318  -161.949
97.9243     70.373  -161.267
99.3486     70.425  -160.417
100.794     70.470  -159.415
102.260     70.504  -158.407
103.747     70.533  -157.375
105.256     70.568  -156.416
106.787     70.597  -155.471
108.340     70.609  -154.340
109.916     70.641  -153.095
111.515     70.652  -151.683
113.137     70.688  -150.059
114.783     70.746  -148.433
116.452     70.795  -146.792
118.146     70.854  -145.090
119.865     70.908  -143.312
121.608     70.960  -141.418
123.377     71.009  -139.364
125.171     71.054  -137.230
126.992     71.104  -135.228
128.839     71.155  -133.329
130.713     71.191  -131.474
132.615     71.183  -129.413
134.543     71.154  -126.837
136.500     71.156  -124.023
138.486     71.170  -121.842
140.500     71.100  -119.297
142.544     70.983  -115.768
144.617     70.927  -112.257
146.721     70.876  -108.678
148.855     70.852  -104.623
151.020     70.819  -100.518
153.217     70.783   -96.225
155.445     70.749   -91.896
157.706     70.729   -87.228
160.000     70.739   -82.054
162.327     70.763   -76.953
164.688     70.799   -72.305
167.084     70.824   -67.198
169.514     70.837   -61.599
171.980     70.808   -56.416
174.481     70.701   -51.135
177.019     70.679   -44.931
179.594     70.715   -38.591
182.206     70.720   -32.177
184.856     70.723   -25.291
187.545     70.770   -18.581
190.273     70.803   -11.798
193.041     70.755    -5.382
195.849     70.714     1.839
198.697     70.724     9.711
201.587     70.711    17.481
204.520     70.689    25.574
207.494     70.724    33.757
210.512     70.733    42.370
213.574     70.720    51.255
216.681     70.756    59.721
219.833     70.797    68.566
223.030     70.822    78.178
226.274     70.903    87.652
229.565     70.949    97.083
232.905     70.990   106.586
236.292     71.016   116.260
239.729     71.064   126.798
243.216     71.112   136.959
246.754     71.148   146.970
250.343     71.046   158.305
253.984     71.109   170.314
257.678     71.273  -178.313
261.426     71.439  -166.756
265.229     71.529  -155.476
269.087     71.538  -143.654
273.001     71.631  -131.903
276.972     71.654  -119.935
281.000     71.762  -106.540
285.088     72.033   -93.648
289.234     72.191   -81.079
293.441     72.360   -68.738
297.709     72.440   -56.524
302.040     72.467   -43.944
306.433     72.525   -30.766
310.890     72.660   -17.391
315.412     72.667    -3.187
320.000     72.796    10.314
324.655     72.757    23.502
329.377     72.700    37.498
334.168     72.697    53.597
339.028     72.891    68.671
343.959     72.977    82.859
348.962     73.022    97.148
354.038     72.960   111.520
359.188     72.925   127.066
364.412     72.857   141.671
369.713     72.751   157.857
375.090     72.686   172.738
380.546     72.321  -171.396
386.081     72.092  -154.701
391.697     71.730  -137.112
397.394     71.512  -118.780
403.175     71.222  -101.763
409.039     70.806   -83.057
414.989     70.478   -63.752
421.025     70.117   -44.488
427.149     69.684   -24.219
433.362     69.520    -3.982
439.665     69.191    16.572
446.060     68.810    37.442
452.548     68.391    58.496
459.131     67.891    81.710
465.809     67.674   105.177
472.584     67.325   129.173
479.458     67.245   153.261
486.432     66.983   176.811
493.507     66.729  -157.218
500.686     66.803  -131.049
507.968     66.767  -105.721
515.357     66.708   -80.199
522.853     66.844   -54.005
530.458     67.019   -27.812
538.174     67.131    -2.217
546.002     67.165    23.859
553.943     67.269    50.812
562.001     67.445    77.987
570.175     67.588   106.003
578.469     67.809   134.463
586.883     68.003   162.666
595.419     68.173  -169.141
604.080     68.358  -140.384
612.866     68.562  -111.134
621.780     68.786   -81.514
630.824     69.037   -51.415
640.000     69.279   -21.496
649.309     69.521     8.197
658.753     69.777    38.291
668.335     70.028    69.446
678.056     70.260   100.376
687.919     70.490   131.668
697.925     70.701   163.421
708.077     70.874  -165.012
718.376     71.031  -133.071
728.825     71.149  -100.683
739.426     71.234   -67.831
750.181     71.269   -34.508
761.093     71.253    -0.707
772.163     71.192    33.039
783.394     71.059    67.459
794.789     70.853   102.980
806.349     70.587   138.660
818.078     70.230   175.063
829.977     69.798  -147.535
842.050     69.278  -109.060
854.298     68.651   -69.259
866.724     67.950   -28.443
879.330     67.173    14.850
892.120     66.381    60.578
905.097     65.711   108.818
918.262     65.294   159.523
931.618     65.294  -148.327
945.169     65.740   -96.121
958.917     66.507   -45.036
972.864     67.433     4.449
987.015     68.379    52.488
1001.37     69.265   100.153
1015.94     70.037   147.119
1030.71     70.675  -166.842
1045.71     71.185  -120.275
1060.92     71.565   -72.988
1076.35     71.797   -25.932
1092.00     71.891    21.606
1107.89     71.840    70.306
1124.00     71.651   119.795
1140.35     71.316   170.222
1156.94     70.836  -137.605
1173.77     70.224   -83.949
1190.84     69.497   -28.501
1208.16     68.706    29.073
1225.73     67.948    89.709
1243.56     67.361   153.521
1261.65     67.084  -140.822
1280.00     67.189   -74.708
1298.62     67.594    -9.211
1317.51     68.158    55.573
1336.67     68.731   119.671
1356.11     69.212  -177.194
1375.84     69.543  -113.936
1395.85     69.691   -50.223
1416.15     69.645    13.714
1436.75     69.397    78.305
1457.65     68.949   144.398
1478.85     68.299  -147.546
1500.36     67.477   -77.603
1522.19     66.534    -4.754
1544.33     65.592    71.546
1566.79     64.819   151.340
1589.58     64.423  -126.285
1612.70     64.430   -43.621
1636.16     64.727    38.565
1659.95     65.115   119.841
1684.10     65.421  -159.452
1708.60     65.551   -78.728
1733.45     65.477     2.023
1758.66     65.186    84.699
1784.24     64.704   169.171
1810.19     64.091  -104.697
1836.52     63.436   -15.453
1863.24     62.847    76.325
1890.34     62.401   170.048
1917.83     62.111   -95.165
1945.73     61.901     0.083
1974.03     61.642    96.373
2002.74     61.246  -166.725
2031.87     60.653   -68.240
2061.43     59.857    32.632
2091.41     58.978   137.499
2121.83     58.207  -113.235
2152.69     57.845    -1.366
2184.01     57.971   112.178
2215.77     58.449  -134.101
2248.00     59.073   -21.434
2280.70     59.706    90.700
2313.87     60.308  -156.769
2347.53     60.855   -43.652
2381.68     61.328    69.186
2416.32     61.669  -177.503
2451.46     61.784   -63.746
2487.12     61.606    50.744
2523.30     61.032   166.401
2560.00     59.980   -76.147
2597.24     58.357    43.518
2635.01     56.002   167.908
2673.34     52.854   -59.278
2712.23     49.773    89.445
2751.68     49.276  -108.827
2791.70     50.954    43.963
2832.31     52.507  -172.637
2873.50     53.434   -31.086
2915.30     53.998   111.786
2957.70     54.475  -102.979
3000.72     54.941    42.877
3044.37     55.185  -171.273
3088.65     55.001   -23.771
3133.58     54.247   126.905
3179.16     53.171   -74.954
3225.40     52.522    91.754
3272.31     53.086   -98.975
3319.91     54.272    66.677
3368.20     55.196  -130.640
3417.19     55.567    31.548
3466.89     55.423  -163.215
3517.32     54.956     6.845
3568.48     54.407  -178.906
3620.39     53.927    -0.523
3673.05     53.624  -177.947
3726.47     53.519     7.146
3780.67     53.564  -165.887
3835.67     53.610    22.381
3891.46     53.523  -147.093
3948.06     53.195    46.171
4005.49     52.670  -116.355
4063.75     52.254    87.516
4122.86     52.263   -65.231
4182.82     52.588   142.558
4243.66     52.774    -7.757
4305.39     52.799  -154.786
4368.01     53.049    62.336
4431.55     53.677   -79.498
4496.01     54.143   137.563
4561.40     53.961    -4.110
4627.75     53.082  -140.532
4695.06     51.964    92.609
4763.35     51.632   -26.573
4832.64     52.234  -145.628
4902.93     52.853    92.531
4974.24     52.652   -28.893
5046.60     51.523  -144.565
5120.00     50.333   111.880
5194.47     50.551    14.691
5270.03     51.377   -87.566
5346.68     51.402   168.758
5424.45     50.594    71.533
5503.35     49.628   -17.882
5583.40     48.838  -101.298
5664.61     48.382  -178.629
5747.01     48.278   106.033
5830.60     47.617    32.456
5915.41     46.546   -28.974
6001.45     47.027   -84.036
6088.74     47.665  -143.679
6177.30     47.117   163.843
6267.15     47.601   123.610
6358.31     49.172    79.813
6450.80     50.011    34.676
6544.62     50.449    -3.984
6639.82     51.092   -37.469
6736.40     51.835   -68.225
6834.38     52.410   -97.681
6933.79     52.331  -124.185
7034.64     51.690  -143.285
7136.96     51.058  -155.813
7240.77     50.174  -163.758
7346.09     48.549  -162.942
7452.94     47.313  -148.123
7561.35     47.566  -129.208
7671.33     47.601  -110.399
7782.91     47.759   -85.133
7896.12     47.956   -58.450
8010.97     47.334   -27.521
8127.49     46.496    15.540
8245.71     45.914    67.487
8365.65     46.653   127.230
8487.33     48.058  -179.712
8610.78     47.834  -126.993
8736.03     46.587   -62.139
8863.09     46.155    14.098
8992.01     45.963    88.605
9122.80     44.768   170.507
9255.50     43.495  -101.583
9390.12     40.547    -3.168
9526.70     38.666   117.203
9665.27     37.960  -122.614
9805.86     35.898     7.392
9948.49     36.852   160.008
10093.2     39.172   -74.266
10240.0     37.634    65.087
10388.9     38.478  -143.436
10540.1     38.642    -1.256
10693.4     36.981   148.092
10848.9     36.121   -39.725
11006.7     36.405   121.169
11166.8     34.768   -61.289
11329.2     32.087   138.614
11494.0     34.449    15.567
11661.2     39.176  -138.805
11830.8     40.134    70.575
12002.9     40.681   -60.082
12177.5     40.578  -174.171
12354.6     43.402    71.991
12534.3     42.627   -43.367
12716.6     41.719  -132.551
12901.6     41.962   140.325
13089.2     41.074    60.222
13279.6     40.293    -9.499
13472.8     37.341   -70.541
13668.8     36.085   -96.267
13867.6     36.899  -115.466
14069.3     39.609  -138.019
14273.9     40.848  -162.190
14481.5     40.199  -170.775
14692.2     39.734  -160.519
14905.9     40.245  -142.346
15122.7     40.498  -114.729
15342.7     40.360   -87.427
15565.8     39.051   -38.812
15792.2     37.258    -0.611
16021.9     30.483   -37.515
16255.0     31.110  -153.235
16491.4     34.764   -40.590
16731.3     31.082    80.029
16974.7     36.802  -164.028
17221.6     31.338   -48.270
17472.1     33.411   139.323
17726.2     37.414   -72.058
17984.0     37.096    78.049
18245.6     34.605  -101.295
18511.0     30.444   127.525
18780.2     34.908    -9.206
19053.4     34.666  -146.012
19330.5     36.415    99.580
19611.7     39.027   -23.947
19897.0     38.015  -134.921
20186.4     36.889   141.835
20480.0     36.403    74.366
20777.9     35.283    10.729
21080.1     32.967   -20.393
21386.7     34.476   -43.745
21697.8     34.898   -69.003
22013.4     32.861   -73.912
22333.6     30.360   -62.916
22658.4     28.533   -17.103
22988.0     27.983    25.952
23322.4     24.465    78.863
23661.6     21.615  -179.077
24005.8     25.569  -105.545
24355.0     18.929   160.993
24709.2     20.134   129.007
25068.6     17.597    -2.273
25433.2     19.075   -24.463
25803.2     24.397   -60.488
26178.5     21.532  -157.026
26559.3     17.038    50.955
26945.6     16.994   -43.159
27337.5     26.040    87.879
27735.2     33.462    36.910
28138.6     37.476   -27.431
28547.9     30.144   -51.474
28963.1     25.540    23.945
29384.4     24.787    65.297
29811.8     19.314    14.501
30245.4     20.765   127.837
30685.3     27.953    37.661
31131.7     21.988   163.997
31584.5     19.740   -16.527
32043.9     21.713    98.476
32510.0     24.251   138.994
32982.8     23.510   -85.651
33462.6     20.551   -82.007
33949.3     21.777   139.781
34443.1     16.939   126.671
34944.1     14.879    14.839
35452.4     16.208  -159.077
35968.0     15.825   163.327
36491.2     15.521   164.662
37022.0     15.081   150.582
37560.5     15.280     6.732
38106.8     15.216   158.442
38661.1     15.332  -175.866
39223.4     15.615   -70.128
39793.9     15.605   107.906
