Freq[Hz]     dBSPL  Phase[Deg]
5.00000    -12.153    -2.041
5.07273    -12.068     0.052
5.14651    -12.003     2.281
5.22137    -11.992     4.892
5.29732    -11.981     7.504
5.37437    -11.970    10.115
5.45254    -11.959    12.726
5.53185    -11.932    15.836
5.61231    -11.889    19.473
5.69394    -11.847    23.111
5.77676    -11.804    26.749
5.86079    -11.759    30.392
5.94604    -11.561    34.357
6.03252    -11.362    38.322
6.12027    -11.164    42.287
6.20929    -10.966    46.252
6.29961    -10.720    49.606
6.39124    -10.463    52.825
6.48420    -10.206    56.044
6.57851     -9.949    59.262
6.67420     -9.797    62.261
6.77128     -9.662    65.224
6.86977     -9.526    68.188
6.96969     -9.406    71.289
7.07107     -9.395    75.445
7.17392     -9.384    79.601
7.27827     -9.374    83.757
7.38413     -9.270    88.950
7.49154     -9.094    94.943
7.60050     -8.917   100.937
7.71105     -8.680   106.841
7.82321     -8.170   112.351
7.93701     -7.661   117.861
8.05245     -7.151   123.370
8.16958     -6.670   126.969
8.28841     -6.189   130.495
8.40896     -5.708   134.022
8.53128     -5.568   137.637
8.65537     -5.473   141.263
8.78126     -5.377   144.889
8.90899     -5.511   153.243
9.03857     -5.660   161.906
9.17004     -5.664   171.092
9.30342     -4.505  -175.560
9.43874     -3.346  -162.212
9.57603     -1.816  -152.026
9.71532      0.280  -146.671
9.85663      2.376  -141.315
10.0000      4.175  -140.604
10.1455      5.891  -141.186
10.2930      7.484  -142.454
10.4427      8.731  -145.634
10.5946      9.978  -148.814
10.7487     10.929  -153.137
10.9051     11.821  -157.688
11.0637     12.559  -162.673
11.2246     13.136  -168.117
11.3879     13.649  -173.709
11.5535     13.928  -179.846
11.7216     14.202   174.006
11.8921     14.177   167.244
12.0650     14.152   160.481
12.2405     13.839   153.136
12.4186     13.489   145.717
12.5992     12.835   137.571
12.7825     12.113   129.263
12.9684     11.041   119.729
13.1570      9.888   109.910
13.3484      8.340    97.308
13.5426      6.727    84.255
13.7395      5.057    64.517
13.9394      3.552    43.904
14.1421      3.319    18.585
14.3478      3.537    -4.415
14.5565      4.724   -22.426
14.7683      5.973   -36.053
14.9831      7.272   -46.293
15.2010      8.397   -53.466
15.4221      9.452   -59.856
15.6464     10.322   -65.107
15.8740     11.043   -69.949
16.1049     11.642   -74.465
16.3392     11.944   -77.797
16.5768     12.141   -80.007
16.8179     12.204   -80.651
17.0626     12.398   -77.786
17.3107     12.899   -73.700
17.5625     13.842   -68.444
17.8180     15.420   -66.061
18.0771     17.075   -66.188
18.3401     18.732   -68.875
18.6068     20.118   -74.221
18.8775     21.187   -80.432
19.1521     21.969   -86.755
19.4306     22.454   -92.612
19.7133     22.598   -96.377
20.0000     22.668   -96.955
20.2909     22.962   -94.614
20.5860     23.705   -90.374
20.8855     25.069   -86.399
21.1893     26.843   -86.174
21.4975     28.539   -89.034
21.8102     30.018   -93.817
22.1274     31.224   -99.550
22.4492     32.164  -105.334
22.7758     32.894  -110.442
23.1071     33.512  -114.395
23.4432     34.151  -117.120
23.7841     34.932  -119.130
24.1301     35.867  -121.372
24.4811     36.883  -124.412
24.8372     37.882  -128.325
25.1984     38.801  -132.819
25.5649     39.613  -137.452
25.9368     40.335  -141.825
26.3141     41.014  -145.704
26.6968     41.699  -149.072
27.0851     42.428  -152.093
27.4791     43.215  -155.016
27.8788     44.050  -158.078
28.2843     44.907  -161.410
28.6957     45.760  -165.048
29.1131     46.586  -168.955
29.5365     47.369  -173.034
29.9661     48.104  -177.162
30.4020     48.797   178.763
30.8442     49.463   174.779
31.2929     50.114   170.815
31.7480     50.751   166.790
32.2098     51.366   162.665
32.6783     51.944   158.465
33.1536     52.495   154.270
33.6359     53.024   150.113
34.1251     53.544   145.978
34.6215     54.058   141.816
35.1250     54.564   137.611
35.6359     55.058   133.374
36.1543     55.541   129.138
36.6802     56.015   124.930
37.2137     56.481   120.780
37.7550     56.944   116.706
38.3041     57.407   112.712
38.8613     57.871   108.753
39.4265     58.333   104.807
40.0000     58.785   100.894
40.5818     59.227    97.051
41.1721     59.665    93.288
41.7710     60.096    89.577
42.3785     60.518    85.926
42.9949     60.932    82.379
43.6203     61.347    78.944
44.2548     61.773    75.553
44.8985     62.203    72.100
45.5515     62.622    68.578
46.2141     63.027    65.052
46.8863     63.424    61.556
47.5683     63.821    58.021
48.2602     64.214    54.375
48.9621     64.591    50.654
49.6743     64.963    46.905
50.3968     65.343    43.071
51.1299     65.730    39.078
51.8736     66.113    34.963
52.6281     66.501    30.797
53.3936     66.899    26.589
54.1702     67.304    22.351
54.9581     67.713    18.115
55.7575     68.113    13.881
56.5685     68.491     9.693
57.3914     68.843     5.588
58.2261     69.160     1.511
59.0730     69.432    -2.500
59.9323     69.688    -6.470
60.8040     69.934   -10.674
61.6884     70.142   -15.082
62.5857     70.360   -19.473
63.4960     70.627   -24.264
64.4196     70.869   -29.481
65.3566     71.083   -34.484
66.3073     71.330   -39.311
67.2717     71.567   -44.132
68.2502     71.776   -48.689
69.2429     71.974   -53.105
70.2501     72.131   -57.491
71.2719     72.257   -61.837
72.3086     72.363   -66.269
73.3603     72.458   -70.814
74.4274     72.545   -75.497
75.5099     72.621   -80.142
76.6083     72.705   -84.661
77.7226     72.789   -89.078
78.8531     72.862   -93.355
80.0000     72.919   -97.484
81.1636     72.969  -101.561
82.3442     73.000  -105.699
83.5419     73.026  -109.860
84.7570     73.058  -114.097
85.9899     73.101  -118.340
87.2406     73.158  -122.530
88.5096     73.225  -126.550
89.7970     73.297  -130.411
91.1031     73.359  -134.114
92.4282     73.412  -137.766
93.7726     73.455  -141.505
95.1366     73.497  -145.436
96.5204     73.548  -149.590
97.9243     73.617  -153.855
99.3486     73.705  -158.093
100.794     73.811  -162.192
102.260     73.913  -166.213
103.747     74.001  -170.160
105.256     74.078  -174.225
106.787     74.136  -178.437
108.340     74.178   177.386
109.916     74.247   173.226
111.515     74.299   169.191
113.137     74.372   165.323
114.783     74.458   161.364
116.452     74.534   157.290
118.146     74.624   153.153
119.865     74.715   149.007
121.608     74.809   144.925
123.377     74.902   140.961
125.171     74.986   137.032
126.992     75.068   132.903
128.839     75.141   128.555
130.713     75.197   124.013
132.615     75.220   119.547
134.543     75.229   115.421
136.500     75.265   111.457
138.486     75.297   107.501
140.500     75.235   103.224
142.544     75.132    99.216
144.617     75.098    95.806
146.721     75.077    92.521
148.855     75.080    89.145
151.020     75.068    85.849
153.217     75.044    82.744
155.445     75.016    79.651
157.706     75.000    76.852
160.000     75.022    73.927
162.327     75.058    70.978
164.688     75.096    68.226
167.084     75.115    65.268
169.514     75.123    62.117
171.980     75.098    58.547
174.481     74.999    55.732
177.019     74.984    53.884
179.594     75.020    51.606
182.206     75.015    48.791
184.856     75.003    46.401
187.545     75.038    44.463
190.273     75.048    42.006
193.041     74.967    39.095
195.849     74.909    36.912
198.697     74.913    34.860
201.587     74.882    32.819
204.520     74.828    31.074
207.494     74.828    29.381
210.512     74.799    27.512
213.574     74.740    25.901
216.681     74.733    24.423
219.833     74.744    22.716
223.030     74.730    21.333
226.274     74.742    19.756
229.565     74.734    17.969
232.905     74.734    16.429
236.292     74.690    15.073
239.729     74.680    13.838
243.216     74.672    12.420
246.754     74.625    10.780
250.343     74.461     9.829
253.984     74.439     9.718
257.678     74.512     8.773
261.426     74.608     7.573
265.229     74.590     6.159
269.087     74.502     5.140
273.001     74.499     4.196
276.972     74.419     3.418
281.000     74.430     3.585
285.088     74.573     2.676
289.234     74.625     1.390
293.441     74.675     0.209
297.709     74.591    -1.301
302.040     74.506    -2.562
306.433     74.449    -3.459
310.890     74.439    -4.743
315.412     74.315    -5.157
320.000     74.309    -6.117
324.655     74.135    -7.381
329.377     73.958    -7.702
334.168     73.825    -6.919
339.028     73.884    -7.129
343.959     73.879    -8.225
348.962     73.842    -8.880
354.038     73.703    -9.464
359.188     73.610    -9.410
364.412     73.534   -10.757
369.713     73.428   -10.466
375.090     73.421   -11.520
380.546     73.139   -12.056
386.081     73.019   -11.985
391.697     72.839   -11.696
397.394     72.828   -11.328
403.175     72.781   -11.924
409.039     72.628   -11.636
414.989     72.594   -11.679
421.025     72.551   -11.962
427.149     72.413   -11.641
433.362     72.566   -11.586
439.665     72.533   -12.788
446.060     72.444   -14.154
452.548     72.333   -15.333
459.131     72.059   -15.174
465.809     72.040   -15.671
472.584     71.829   -15.994
479.458     71.874   -16.501
486.432     71.712   -18.142
493.507     71.506   -18.063
500.686     71.573   -18.452
507.968     71.505   -19.836
515.357     71.398   -20.682
522.853     71.401   -21.346
530.458     71.403   -22.737
538.174     71.337   -24.505
546.002     71.154   -25.631
553.943     71.041   -26.296
562.001     70.953   -26.947
570.175     70.811   -27.258
578.469     70.731   -27.588
586.883     70.633   -27.984
595.419     70.530   -28.064
604.080     70.435   -28.032
612.866     70.380   -28.098
621.780     70.360   -27.960
630.824     70.367   -28.132
640.000     70.396   -28.195
649.309     70.448   -28.556
658.753     70.509   -28.923
668.335     70.568   -29.623
678.056     70.632   -30.400
687.919     70.693   -31.336
697.925     70.724   -32.372
708.077     70.755   -33.583
718.376     70.756   -34.795
728.825     70.727   -36.058
739.426     70.682   -37.305
750.181     70.605   -38.531
761.093     70.517   -39.686
772.163     70.408   -40.655
783.394     70.280   -41.425
794.789     70.144   -42.140
806.349     70.008   -42.712
818.078     69.894   -43.010
829.977     69.779   -43.209
842.050     69.685   -43.267
854.298     69.613   -43.301
866.724     69.568   -43.251
879.330     69.548   -43.190
892.120     69.538   -43.151
905.097     69.565   -43.122
918.262     69.595   -43.124
931.618     69.655   -43.179
945.169     69.711   -43.233
958.917     69.803   -43.378
972.864     69.893   -43.547
987.015     70.015   -43.881
1001.37     70.143   -44.263
1015.94     70.287   -44.867
1030.71     70.441   -45.624
1045.71     70.600   -46.553
1060.92     70.761   -47.777
1076.35     70.907   -49.010
1092.00     71.033   -50.498
1107.89     71.154   -52.052
1124.00     71.238   -53.631
1140.35     71.316   -55.330
1156.94     71.387   -56.963
1173.77     71.455   -58.550
1190.84     71.515   -60.127
1208.16     71.591   -61.751
1225.73     71.665   -63.412
1243.56     71.749   -65.221
1261.65     71.828   -67.153
1280.00     71.902   -69.199
1298.62     71.955   -71.312
1317.51     71.987   -73.570
1336.67     72.006   -75.827
1356.11     72.009   -78.044
1375.84     72.010   -80.195
1395.85     72.016   -82.342
1416.15     72.027   -84.480
1436.75     72.052   -86.797
1457.65     72.088   -89.293
1478.85     72.102   -92.046
1500.36     72.088   -94.988
1522.19     72.014   -98.102
1544.33     71.891  -101.204
1566.79     71.701  -104.072
1589.58     71.473  -106.604
1612.70     71.243  -108.664
1636.16     71.045  -110.268
1659.95     70.909  -111.678
1684.10     70.840  -113.182
1708.60     70.813  -115.029
1733.45     70.789  -117.341
1758.66     70.722  -119.992
1784.24     70.578  -122.775
1810.19     70.367  -125.379
1836.52     70.111  -127.563
1863.24     69.856  -129.225
1890.34     69.649  -130.577
1917.83     69.510  -131.846
1945.73     69.391  -133.308
1974.03     69.262  -135.048
2002.74     69.080  -136.838
2031.87     68.846  -138.303
2061.43     68.593  -139.137
2091.41     68.396  -139.374
2121.83     68.296  -139.222
2152.69     68.301  -139.176
2184.01     68.374  -139.421
2215.77     68.484  -139.930
2248.00     68.606  -140.593
2280.70     68.774  -141.462
2313.87     68.981  -142.603
2347.53     69.197  -144.314
2381.68     69.374  -146.409
2416.32     69.477  -148.578
2451.46     69.533  -150.485
2487.12     69.605  -151.953
2523.30     69.741  -153.210
2560.00     69.936  -154.712
2597.24     70.142  -156.491
2635.01     70.343  -158.325
2673.34     70.575  -160.049
2712.23     70.889  -161.938
2751.68     71.272  -164.630
2791.70     71.603  -168.395
2832.31     71.775  -172.747
2873.50     71.761  -176.769
2915.30     71.668  -179.607
2957.70     71.668   178.504
3000.72     71.832   176.597
3044.37     72.057   173.809
3088.65     72.189   170.278
3133.58     72.191   166.880
3179.16     72.140   164.222
3225.40     72.141   162.151
3272.31     72.223   160.074
3319.91     72.326   157.688
3368.20     72.398   155.133
3417.19     72.425   152.604
3466.89     72.406   150.464
3517.32     72.390   149.037
3568.48     72.483   148.218
3620.39     72.727   147.231
3673.05     73.033   145.489
3726.47     73.296   143.321
3780.67     73.545   141.371
3835.67     73.872   139.440
3891.46     74.252   136.929
3948.06     74.598   133.935
4005.49     74.927   131.041
4063.75     75.344   128.031
4122.86     75.841   124.059
4182.82     76.285   118.703
4243.66     76.556   112.300
4305.39     76.581   105.574
4368.01     76.365    99.430
4431.55     76.014    94.679
4496.01     75.694    91.114
4561.40     75.421    87.936
4627.75     75.129    85.149
4695.06     74.863    83.165
4763.35     74.694    81.593
4832.64     74.596    80.059
4902.93     74.573    78.544
4974.24     74.611    76.636
5046.60     74.644    74.421
5120.00     74.708    71.983
5194.47     74.739    68.782
5270.03     74.608    65.552
5346.68     74.435    63.301
5424.45     74.355    61.276
5503.35     74.285    59.049
5583.40     74.223    56.793
5664.61     74.143    54.261
5747.01     74.007    51.792
5830.60     73.847    49.532
5915.41     73.670    47.549
6001.45     73.534    45.689
6088.74     73.364    43.514
6177.30     73.105    41.638
6267.15     72.804    40.461
6358.31     72.539    40.311
6450.80     72.446    40.747
6544.62     72.528    40.818
6639.82     72.685    39.931
6736.40     72.832    38.452
6834.38     72.993    36.030
6933.79     72.984    32.891
7034.64     72.862    30.086
7136.96     72.686    27.436
7240.77     72.444    24.704
7346.09     72.028    22.513
7452.94     71.628    21.720
7561.35     71.308    21.297
7671.33     71.033    20.940
7782.91     70.759    20.981
7896.12     70.527    20.994
8010.97     70.320    21.482
8127.49     70.116    21.431
8245.71     69.788    21.822
8365.65     69.360    23.323
8487.33     69.154    26.027
8610.78     68.981    28.467
8736.03     68.946    31.741
8863.09     69.287    35.535
8992.01     70.041    36.566
9122.80     70.812    33.733
9255.50     71.244    28.092
9390.12     71.226    21.177
9526.70     70.856    15.143
9665.27     70.206    10.068
9805.86     69.437     7.297
9948.49     68.764     6.031
10093.2     68.162     6.323
10240.0     67.814     7.175
10388.9     67.434     8.657
10540.1     67.438    11.071
10693.4     67.583    11.845
10848.9     67.880    11.347
11006.7     67.923     8.279
11166.8     67.635     5.997
11329.2     67.204     4.368
11494.0     66.610     4.748
11661.2     66.139     7.459
11830.8     66.060    11.362
12002.9     66.322    13.675
12177.5     66.565    14.834
12354.6     66.842    14.938
12534.3     66.985    15.254
12716.6     67.305    15.795
12901.6     67.781    14.918
13089.2     68.085    11.711
13279.6     68.124     8.920
13472.8     68.076     6.093
13668.8     67.920     3.697
13867.6     67.649     2.277
14069.3     67.501     1.231
14273.9     67.301     0.321
14481.5     67.093     0.081
14692.2     67.098     0.527
14905.9     67.233     0.021
15122.7     67.404    -2.250
15342.7     67.347    -5.103
15565.8     67.191    -8.132
15792.2     66.760   -10.881
16021.9     66.282   -10.779
16255.0     66.278   -10.406
16491.4     66.359   -12.477
16731.3     66.239   -15.506
16974.7     66.000   -18.494
17221.6     65.526   -22.141
17472.1     64.858   -23.533
17726.2     64.373   -22.654
17984.0     64.365   -21.728
18245.6     64.589   -23.482
18511.0     64.878   -28.718
18780.2     64.604   -37.148
19053.4     63.748   -45.079
19330.5     62.495   -50.982
19611.7     61.144   -55.415
19897.0     59.612   -58.344
20186.4     57.994   -60.440
20480.0     55.677   -61.525
20777.9     53.219   -50.993
21080.1     52.731   -34.669
21386.7     53.471   -29.783
21697.8     53.614   -30.925
22013.4     53.032   -34.214
22333.6     51.989   -35.696
22658.4     50.584   -36.070
22988.0     48.692   -32.232
23322.4     47.453   -22.579
23661.6     46.577   -12.901
24005.8     46.053    -1.980
24355.0     46.770     7.833
24709.2     47.306     8.041
25068.6     46.901     8.873
25433.2     46.720    13.412
25803.2     46.620    15.419
26178.5     46.614    18.229
26559.3     46.971    20.877
26945.6     47.240    17.795
27337.5     46.815    14.323
27735.2     45.885    14.622
28138.6     45.360    16.987
28547.9     45.093    20.826
28963.1     44.777    20.069
29384.4     43.855    18.535
29811.8     42.345    22.968
30245.4     41.265    32.717
30685.3     41.336    44.467
31131.7     42.102    47.464
31584.5     41.389    49.683
32043.9     41.646    56.969
32510.0     42.328    56.413
32982.8     41.712    51.676
33462.6     40.834    53.957
33949.3     40.791    57.248
34443.1     40.528    54.054
34944.1     40.092    54.240
35452.4     40.347    51.692
35968.0     39.632    41.589
36491.2     37.921    32.317
37022.0     35.715    24.698
37560.5     33.544    16.640
38106.8     29.264     8.512
38661.1     22.397    93.516
39223.4     17.361     2.382
39793.9     19.013    -7.435
