Freq[Hz]     dBSPL  Phase[Deg]
5.00000    -12.941    -0.553
5.07273    -12.858     1.530
5.14651    -12.794     3.748
5.22137    -12.784     6.347
5.29732    -12.774     8.945
5.37437    -12.764    11.544
5.45254    -12.753    14.142
5.53185    -12.727    17.239
5.61231    -12.684    20.864
5.69394    -12.642    24.488
5.77676    -12.599    28.113
5.86079    -12.554    31.743
5.94604    -12.354    35.696
6.03252    -12.154    39.649
6.12027    -11.955    43.602
6.20929    -11.755    47.555
6.29961    -11.507    50.900
6.39124    -11.247    54.110
6.48420    -10.988    57.321
6.57851    -10.728    60.531
6.67420    -10.573    63.526
6.77128    -10.435    66.486
6.86977    -10.296    69.445
6.96969    -10.172    72.544
7.07107    -10.158    76.703
7.17392    -10.143    80.862
7.27827    -10.128    85.021
7.38413    -10.020    90.221
7.49154     -9.839    96.225
7.60050     -9.658   102.229
7.71105     -9.416   108.145
7.82321     -8.902   113.673
7.93701     -8.388   119.200
8.05245     -7.875   124.728
8.16958     -7.388   128.352
8.28841     -6.902   131.904
8.40896     -6.416   135.456
8.53128     -6.273   139.103
8.65537     -6.173   142.762
8.78126     -6.073   146.420
8.90899     -6.203   154.812
9.03857     -6.349   163.514
9.17004     -6.348   172.739
9.30342     -5.186  -173.869
9.43874     -4.024  -160.478
9.57603     -2.492  -150.247
9.71532     -0.394  -144.845
9.85663      1.705  -139.442
10.0000      3.505  -138.683
10.1455      5.223  -139.217
10.2930      6.817  -140.436
10.4427      8.065  -143.567
10.5946      9.312  -146.699
10.7487     10.263  -150.974
10.9051     11.154  -155.478
11.0637     11.892  -160.418
11.2246     12.469  -165.817
11.3879     12.981  -171.367
11.5535     13.258  -177.464
11.7216     13.530   176.429
11.8921     13.503   169.700
12.0650     13.477   162.972
12.2405     13.162   155.657
12.4186     12.810   148.266
12.5992     12.154   140.143
12.7825     11.432   131.857
12.9684     10.359   122.341
13.1570      9.206   112.538
13.3484      7.658    99.949
13.5426      6.045    86.907
13.7395      4.376    67.179
13.9394      2.873    46.575
14.1421      2.643    21.263
14.3478      2.864    -1.728
14.5565      4.056   -19.729
14.7683      5.310   -33.343
14.9831      6.614   -43.568
15.2010      7.746   -50.720
15.4221      8.808   -57.087
15.6464      9.687   -62.307
15.8740     10.415   -67.113
16.1049     11.023   -71.587
16.3392     11.333   -74.868
16.5768     11.539   -77.022
16.8179     11.610   -77.602
17.0626     11.811   -74.665
17.3107     12.320   -70.503
17.5625     13.271   -65.165
17.8180     14.853   -62.694
18.0771     16.513   -62.730
18.3401     18.173   -65.325
18.6068     19.561   -70.577
18.8775     20.632   -76.696
19.1521     21.414   -82.928
19.4306     21.898   -88.697
19.7133     22.040   -92.380
20.0000     22.107   -92.883
20.2909     22.397   -90.474
20.5860     23.137   -86.175
20.8855     24.497   -82.148
21.1893     26.267   -81.883
21.4975     27.961   -84.713
21.8102     29.438   -89.475
22.1274     30.642   -95.193
22.4492     31.582  -100.969
22.7758     32.315  -106.071
23.1071     32.938  -110.019
23.4432     33.582  -112.737
23.7841     34.372  -114.733
24.1301     35.317  -116.951
24.4811     36.343  -119.955
24.8372     37.354  -123.819
25.1984     38.283  -128.250
25.5649     39.105  -132.806
25.9368     39.837  -137.090
26.3141     40.523  -140.871
26.6968     41.212  -144.137
27.0851     41.943  -147.057
27.4791     42.729  -149.885
27.8788     43.559  -152.868
28.2843     44.412  -156.139
28.6957     45.258  -159.742
29.1131     46.077  -163.642
29.5365     46.853  -167.746
29.9661     47.585  -171.931
30.4020     48.280  -176.092
30.8442     48.953   179.812
31.2929     49.619   175.723
31.7480     50.278   171.572
32.2098     50.926   167.337
32.6783     51.546   163.067
33.1536     52.145   158.857
33.6359     52.729   154.755
34.1251     53.306   150.766
34.6215     53.874   146.847
35.1250     54.429   142.972
35.6359     54.962   139.155
36.1543     55.468   135.398
36.6802     55.948   131.707
37.2137     56.401   128.077
37.7550     56.831   124.490
38.3041     57.240   120.904
38.8613     57.637   117.245
39.4265     58.018   113.445
40.0000     58.386   109.509
40.5818     58.747   105.457
41.1721     59.116   101.300
41.7710     59.501    97.050
42.3785     59.906    92.750
42.9949     60.335    88.521
43.6203     60.797    84.440
44.2548     61.303    80.514
44.8985     61.834    76.694
45.5515     62.366    72.997
46.2141     62.884    69.497
46.8863     63.388    66.212
47.5683     63.878    63.043
48.2602     64.340    59.864
48.9621     64.764    56.660
49.6743     65.161    53.425
50.3968     65.546    50.056
51.1299     65.924    46.444
51.8736     66.289    42.607
52.6281     66.658    38.616
53.3936     67.040    34.494
54.1702     67.438    30.280
54.9581     67.848    26.039
55.7575     68.259    21.797
56.5685     68.652    17.617
57.3914     69.024    13.541
58.2261     69.363     9.514
59.0730     69.657     5.572
59.9323     69.936     1.684
60.8040     70.205    -2.423
61.6884     70.436    -6.715
62.5857     70.677   -10.967
63.4960     70.963   -15.598
64.4196     71.218   -20.641
65.3566     71.440   -25.475
66.3073     71.690   -30.156
67.2717     71.927   -34.872
68.2502     72.137   -39.369
69.2429     72.337   -43.762
70.2501     72.505   -48.143
71.2719     72.647   -52.476
72.3086     72.773   -56.869
73.3603     72.889   -61.340
74.4274     72.992   -65.922
75.5099     73.081   -70.462
76.6083     73.174   -74.893
77.7226     73.265   -79.256
78.8531     73.348   -83.510
80.0000     73.421   -87.627
81.1636     73.492   -91.673
82.3442     73.550   -95.734
83.5419     73.600   -99.758
84.7570     73.649  -103.806
85.9899     73.694  -107.847
87.2406     73.741  -111.877
88.5096     73.789  -115.836
89.7970     73.841  -119.764
91.1031     73.899  -123.647
92.4282     73.969  -127.524
93.7726     74.051  -131.435
95.1366     74.148  -135.396
96.5204     74.252  -139.415
97.9243     74.355  -143.431
99.3486     74.456  -147.410
100.794     74.556  -151.337
102.260     74.655  -155.301
103.747     74.749  -159.255
105.256     74.842  -163.312
106.787     74.920  -167.458
108.340     74.976  -171.533
109.916     75.050  -175.618
111.515     75.109  -179.636
113.137     75.198   176.487
114.783     75.309   172.558
116.452     75.411   168.595
118.146     75.517   164.625
119.865     75.613   160.636
121.608     75.706   156.645
123.377     75.800   152.710
125.171     75.894   148.795
126.992     75.990   144.707
128.839     76.078   140.437
130.713     76.144   135.987
132.615     76.172   131.598
134.543     76.188   127.518
136.500     76.234   123.588
138.486     76.279   119.669
140.500     76.234   115.458
142.544     76.147   111.558
144.617     76.125   108.268
146.721     76.108   105.095
148.855     76.112   101.801
151.020     76.105    98.548
153.217     76.091    95.489
155.445     76.076    92.464
157.706     76.069    89.742
160.000     76.101    86.890
162.327     76.150    84.026
164.688     76.198    81.372
167.084     76.224    78.508
169.514     76.243    75.433
171.980     76.234    71.984
174.481     76.142    69.335
177.019     76.123    67.617
179.594     76.158    65.396
182.206     76.162    62.642
184.856     76.160    60.365
187.545     76.197    58.511
190.273     76.218    56.119
193.041     76.153    53.336
195.849     76.101    51.325
198.697     76.104    49.416
201.587     76.072    47.482
204.520     76.017    45.813
207.494     76.025    44.168
210.512     76.011    42.417
213.574     75.957    40.973
216.681     75.951    39.592
219.833     75.972    37.992
223.030     75.967    36.776
226.274     75.982    35.359
229.565     75.975    33.726
232.905     75.974    32.305
236.292     75.937    31.068
239.729     75.931    30.016
243.216     75.920    28.741
246.754     75.874    27.230
250.343     75.709    26.395
253.984     75.702    26.410
257.678     75.780    25.737
261.426     75.860    24.701
265.229     75.848    23.386
269.087     75.761    22.602
273.001     75.749    21.785
276.972     75.679    21.160
281.000     75.686    21.574
285.088     75.825    20.842
289.234     75.867    19.794
293.441     75.909    18.682
297.709     75.849    17.391
302.040     75.756    16.452
306.433     75.694    15.840
310.890     75.660    14.821
315.412     75.538    14.564
320.000     75.531    13.960
324.655     75.345    13.001
329.377     75.153    12.976
334.168     75.014    14.002
339.028     75.083    14.170
343.959     75.057    13.483
348.962     75.026    13.065
354.038     74.899    12.854
359.188     74.835    13.385
364.412     74.753    12.552
369.713     74.675    13.251
375.090     74.676    12.665
380.546     74.427    12.478
386.081     74.348    12.989
391.697     74.192    13.699
397.394     74.229    14.334
403.175     74.222    14.077
409.039     74.116    14.638
414.989     74.119    14.834
421.025     74.114    14.727
427.149     74.025    15.207
433.362     74.198    15.477
439.665     74.199    14.368
446.060     74.126    13.197
452.548     74.006    12.096
459.131     73.740    12.194
465.809     73.721    11.656
472.584     73.518    11.302
479.458     73.557    10.799
486.432     73.384     9.093
493.507     73.170     9.174
500.686     73.228     8.744
507.968     73.108     7.492
515.357     72.964     6.592
522.853     72.926     5.958
530.458     72.869     4.697
538.174     72.726     3.124
546.002     72.451     2.209
553.943     72.242     1.804
562.001     72.049     1.598
570.175     71.788     1.806
578.469     71.592     2.218
586.883     71.386     2.792
595.419     71.176     3.764
604.080     71.017     5.109
612.866     70.907     6.613
621.780     70.867     8.235
630.824     70.902     9.744
640.000     70.996    11.060
649.309     71.149    12.141
658.753     71.331    12.888
668.335     71.545    13.283
678.056     71.764    13.284
687.919     71.977    12.917
697.925     72.169    12.192
708.077     72.327    11.215
718.376     72.453     9.976
728.825     72.530     8.604
739.426     72.562     7.078
750.181     72.539     5.556
761.093     72.466     4.077
772.163     72.342     2.738
783.394     72.168     1.600
794.789     71.949     0.744
806.349     71.710     0.209
818.078     71.456     0.165
829.977     71.209     0.548
842.050     70.991     1.412
854.298     70.831     2.664
866.724     70.751     4.057
879.330     70.754     5.658
892.120     70.844     7.014
905.097     71.003     8.071
918.262     71.205     8.689
931.618     71.424     8.748
945.169     71.620     8.233
958.917     71.793     7.281
972.864     71.909     5.952
987.015     71.960     4.372
1001.37     71.925     2.714
1015.94     71.811     1.087
1030.71     71.621    -0.280
1045.71     71.358    -1.263
1060.92     71.041    -1.657
1076.35     70.703    -1.283
1092.00     70.394    -0.187
1107.89     70.164     1.691
1124.00     70.061     4.143
1140.35     70.107     6.620
1156.94     70.306     8.791
1173.77     70.607    10.296
1190.84     70.961    10.918
1208.16     71.310    10.698
1225.73     71.620     9.783
1243.56     71.867     8.350
1261.65     72.033     6.685
1280.00     72.118     4.935
1298.62     72.150     3.310
1317.51     72.142     2.006
1336.67     72.119     0.941
1356.11     72.122     0.099
1375.84     72.164    -0.649
1395.85     72.263    -1.584
1416.15     72.391    -2.885
1436.75     72.528    -4.694
1457.65     72.641    -7.026
1478.85     72.693    -9.822
1500.36     72.661   -12.927
1522.19     72.537   -16.169
1544.33     72.323   -19.279
1566.79     72.028   -22.073
1589.58     71.685   -24.410
1612.70     71.330   -26.278
1636.16     71.008   -27.762
1659.95     70.738   -29.119
1684.10     70.512   -30.644
1708.60     70.313   -32.619
1733.45     70.094   -35.060
1758.66     69.812   -37.992
1784.24     69.434   -41.186
1810.19     68.956   -44.363
1836.52     68.369   -47.315
1863.24     67.720   -49.750
1890.34     67.056   -51.598
1917.83     66.433   -53.028
1945.73     65.903   -54.412
1974.03     65.460   -56.307
2002.74     65.076   -59.323
2031.87     64.650   -63.649
2061.43     64.118   -69.574
2091.41     63.397   -76.965
2121.83     62.462   -85.686
2152.69     61.300   -95.516
2184.01     59.969  -106.685
2215.77     58.602  -119.386
2248.00     57.431  -133.931
2280.70     56.704  -150.601
2313.87     56.617  -168.854
2347.53     57.113   173.152
2381.68     57.890   156.703
2416.32     58.623   142.744
2451.46     59.143   131.523
2487.12     59.446   123.762
2523.30     59.680   119.572
2560.00     60.089   118.194
2597.24     60.784   117.591
2635.01     61.633   115.929
2673.34     62.420   112.938
2712.23     62.972   109.205
2751.68     63.266   105.753
2791.70     63.353   103.397
2832.31     63.345   102.661
2873.50     63.402   103.565
2915.30     63.639   105.371
2957.70     64.090   107.036
3000.72     64.656   107.743
3044.37     65.201   107.426
3088.65     65.651   106.665
3133.58     66.015   105.968
3179.16     66.346   105.538
3225.40     66.679   105.369
3272.31     67.057   105.401
3319.91     67.511   105.355
3368.20     68.033   104.735
3417.19     68.560   103.296
3466.89     69.014   101.235
3517.32     69.398    98.824
3568.48     69.722    96.233
3620.39     69.975    93.281
3673.05     70.116    90.252
3726.47     70.166    87.639
3780.67     70.224    85.366
3835.67     70.309    82.848
3891.46     70.328    79.781
3948.06     70.231    76.546
4005.49     70.036    73.330
4063.75     69.712    69.834
4122.86     69.127    66.357
4182.82     68.179    64.224
4243.66     66.952    65.545
4305.39     65.873    72.140
4368.01     65.661    82.129
4431.55     66.319    89.467
4496.01     67.069    92.582
4561.40     67.679    94.362
4627.75     68.331    95.274
4695.06     68.916    94.516
4763.35     69.284    93.231
4832.64     69.563    92.229
4902.93     69.764    91.233
4974.24     69.883    90.914
5046.60     70.097    91.437
5120.00     70.425    91.682
5194.47     70.811    91.771
5270.03     71.298    91.281
5346.68     71.786    89.798
5424.45     72.243    87.734
5503.35     72.633    84.829
5583.40     72.866    81.798
5664.61     73.065    79.206
5747.01     73.266    76.491
5830.60     73.466    73.810
5915.41     73.674    70.447
6001.45     73.731    66.746
6088.74     73.751    63.495
6177.30     73.705    59.835
6267.15     73.520    56.797
6358.31     73.343    54.412
6450.80     73.163    52.807
6544.62     73.157    51.498
6639.82     73.183    49.432
6736.40     73.224    47.086
6834.38     73.200    44.055
6933.79     73.095    41.009
7034.64     72.860    37.972
7136.96     72.597    36.120
7240.77     72.402    34.122
7346.09     72.156    32.517
7452.94     71.940    31.315
7561.35     71.835    30.291
7671.33     71.700    28.519
7782.91     71.574    27.179
7896.12     71.422    25.391
8010.97     71.264    23.644
8127.49     71.004    21.585
8245.71     70.643    19.525
8365.65     70.091    18.221
8487.33     69.488    17.172
8610.78     68.647    17.113
8736.03     67.571    20.504
8863.09     67.160    28.895
8992.01     67.839    35.407
9122.80     68.822    35.324
9255.50     69.476    30.363
9390.12     69.369    23.331
9526.70     68.670    18.181
9665.27     67.806    16.325
9805.86     67.021    17.079
9948.49     66.461    19.251
10093.2     66.088    23.092
10240.0     66.244    28.540
10388.9     66.837    31.315
10540.1     67.399    31.748
10693.4     68.035    31.461
10848.9     68.651    28.274
11006.7     68.769    22.949
11166.8     68.371    19.194
11329.2     67.831    18.502
11494.0     67.490    20.624
11661.2     67.509    22.905
11830.8     67.709    25.269
12002.9     68.307    26.564
12177.5     68.973    24.774
12354.6     69.346    20.764
12534.3     69.341    17.092
12716.6     69.262    14.886
12901.6     69.305    13.629
13089.2     69.541    10.908
13279.6     69.625     6.923
13472.8     69.450     1.898
13668.8     68.992    -2.257
13867.6     68.335    -5.054
14069.3     67.593    -6.469
14273.9     66.828    -5.109
14481.5     66.373    -1.700
14692.2     66.442     1.876
14905.9     66.697     3.451
15122.7     67.049     3.662
15342.7     67.414     2.574
15565.8     67.729     0.017
15792.2     67.872    -3.878
16021.9     67.806    -8.010
16255.0     67.511   -12.496
16491.4     66.912   -15.823
16731.3     66.335   -16.299
16974.7     66.059   -15.958
17221.6     66.009   -16.454
17472.1     66.027   -18.671
17726.2     65.877   -21.853
17984.0     65.530   -24.618
18245.6     65.330   -26.347
18511.0     65.418   -29.781
18780.2     65.426   -36.124
19053.4     65.092   -44.847
19330.5     64.291   -54.447
19611.7     63.082   -64.814
19897.0     61.280   -75.239
20186.4     58.762   -85.990
20480.0     54.742   -94.509
20777.9     49.218   -93.138
21080.1     41.055   -63.616
21386.7     41.900    13.982
21697.8     48.093    31.997
22013.4     51.417    31.751
22333.6     53.299    25.818
22658.4     54.039    19.518
22988.0     54.145    14.411
23322.4     53.830    12.054
23661.6     53.644    12.911
24005.8     53.851    11.734
24355.0     53.545     7.828
24709.2     52.875     7.823
25068.6     52.486     8.419
25433.2     52.176     8.269
25803.2     51.821     8.489
26178.5     51.592     7.260
26559.3     50.962     5.823
26945.6     50.262     6.764
27337.5     49.773    10.118
27735.2     49.907    13.516
28138.6     50.498    10.545
28547.9     49.478     3.070
28963.1     47.605     4.289
29384.4     46.393    13.776
29811.8     46.400    24.477
30245.4     46.769    28.680
30685.3     46.855    32.435
31131.7     47.215    33.938
31584.5     47.327    33.926
32043.9     47.371    32.710
32510.0     47.113    29.286
32982.8     46.546    26.694
33462.6     45.561    25.362
33949.3     45.099    27.468
34443.1     44.803    28.541
34944.1     45.118    28.212
35452.4     45.349    20.340
35968.0     44.871     9.278
36491.2     43.474    -2.756
37022.0     41.514   -11.761
37560.5     39.353   -19.737
38106.8     36.800   -27.089
38661.1     33.826   -32.110
39223.4     30.326   -37.249
39793.9     27.162    17.259
