Freq[Hz]     dBSPL  Phase[Deg]
5.00000    -13.540     1.864
5.07273    -13.462     3.992
5.14651    -13.403     6.256
5.22137    -13.399     8.898
5.29732    -13.395    11.540
5.37437    -13.390    14.182
5.45254    -13.386    16.824
5.53185    -13.367    19.963
5.61231    -13.331    23.626
5.69394    -13.296    27.290
5.77676    -13.260    30.953
5.86079    -13.222    34.622
5.94604    -13.031    38.607
6.03252    -12.840    42.592
6.12027    -12.649    46.576
6.20929    -12.459    50.561
6.29961    -12.219    53.930
6.39124    -11.970    57.162
6.48420    -11.720    60.394
6.57851    -11.470    63.626
6.67420    -11.325    66.633
6.77128    -11.197    69.603
6.86977    -11.068    72.573
6.96969    -10.955    75.680
7.07107    -10.950    79.837
7.17392    -10.946    83.993
7.27827    -10.942    88.149
7.38413    -10.844    93.339
7.49154    -10.673    99.327
7.60050    -10.503   105.315
7.71105    -10.270   111.212
7.82321     -9.766   116.711
7.93701     -9.262   122.210
8.05245     -8.757   127.709
8.16958     -8.279   131.293
8.28841     -7.801   134.804
8.40896     -7.324   138.316
8.53128     -7.187   141.912
8.65537     -7.094   145.520
8.78126     -7.001   149.128
8.90899     -7.135   157.461
9.03857     -7.285   166.103
9.17004     -7.289   175.268
9.30342     -6.130  -171.406
9.43874     -4.971  -158.080
9.57603     -3.440  -147.916
9.71532     -1.342  -142.582
9.85663      0.757  -137.249
10.0000      2.559  -136.559
10.1455      4.279  -137.162
10.2930      5.875  -138.450
10.4427      7.128  -141.648
10.5946      8.381  -144.846
10.7487      9.338  -149.184
10.9051     10.237  -153.750
11.0637     10.984  -158.746
11.2246     11.569  -164.198
11.3879     12.091  -169.798
11.5535     12.381  -175.937
11.7216     12.665   177.915
11.8921     12.652   171.159
12.0650     12.639   164.404
12.2405     12.338   157.077
12.4186     12.001   149.675
12.5992     11.361   141.557
12.7825     10.655   133.280
12.9684      9.598   123.786
13.1570      8.461   114.010
13.3484      6.928   101.464
13.5426      5.331    88.468
13.7395      3.677    68.802
13.9394      2.188    48.262
14.1421      1.970    23.027
14.3478      2.204     0.117
14.5565      3.406   -17.796
14.7683      4.670   -31.318
14.9831      5.983   -41.449
15.2010      7.122   -48.505
15.4221      8.189   -54.776
15.6464      9.071   -59.902
15.8740      9.802   -64.617
16.1049     10.413   -69.004
16.3392     10.724   -72.207
16.5768     10.931   -74.286
16.8179     11.002   -74.800
17.0626     11.204   -71.806
17.3107     11.713   -67.593
17.5625     12.664   -62.210
17.8180     14.249   -59.702
18.0771     15.913   -59.706
18.3401     17.578   -62.270
18.6068     18.972   -67.493
18.8775     20.050   -73.580
19.1521     20.841   -79.776
19.4306     21.337   -85.503
19.7133     21.491   -89.131
20.0000     21.573   -89.565
20.2909     21.878   -87.070
20.5860     22.634   -82.666
20.8855     24.010   -78.515
21.1893     25.794   -78.098
21.4975     27.501   -80.751
21.8102     28.987   -85.313
22.1274     30.199   -90.811
22.4492     31.141   -96.349
22.7758     31.870  -101.202
23.1071     32.484  -104.894
23.4432     33.113  -107.359
23.7841     33.878  -109.118
24.1301     34.793  -111.125
24.4811     35.782  -113.956
24.8372     36.750  -117.694
25.1984     37.633  -122.057
25.5649     38.408  -126.610
25.9368     39.093  -130.960
26.3141     39.733  -134.877
26.6968     40.383  -138.347
27.0851     41.081  -141.531
27.4791     41.843  -144.677
27.8788     42.664  -148.015
28.2843     43.517  -151.659
28.6957     44.379  -155.635
29.1131     45.227  -159.887
29.5365     46.045  -164.301
29.9661     46.829  -168.737
30.4020     47.583  -173.072
30.8442     48.322  -177.240
31.2929     49.055   178.694
31.7480     49.780   174.661
32.2098     50.486   170.630
32.6783     51.153   166.643
33.1536     51.786   162.762
33.6359     52.390   159.007
34.1251     52.972   155.351
34.6215     53.533   151.723
35.1250     54.070   148.074
35.6359     54.579   144.389
36.1543     55.061   140.672
36.6802     55.522   136.926
37.2137     55.964   133.160
37.7550     56.397   129.383
38.3041     56.829   125.586
38.8613     57.265   121.742
39.4265     57.704   117.833
40.0000     58.142   113.903
40.5818     58.581   110.014
41.1721     59.024   106.200
41.7710     59.470   102.453
42.3785     59.912    98.801
42.9949     60.349    95.291
43.6203     60.786    91.928
44.2548     61.233    88.635
44.8985     61.678    85.286
45.5515     62.109    81.855
46.2141     62.520    78.391
46.8863     62.926    74.913
47.5683     63.334    71.347
48.2602     63.744    67.630
48.9621     64.148    63.820
49.6743     64.559    59.993
50.3968     64.989    56.125
51.1299     65.432    52.172
51.8736     65.874    48.192
52.6281     66.317    44.261
53.3936     66.759    40.366
54.1702     67.193    36.485
54.9581     67.612    32.602
55.7575     68.007    28.663
56.5685     68.368    24.673
57.3914     68.700    20.642
58.2261     69.004    16.517
59.0730     69.274    12.357
59.9323     69.548     8.191
60.8040     69.831     3.806
61.6884     70.094    -0.700
62.5857     70.375    -5.068
63.4960     70.704    -9.695
64.4196     70.994   -14.638
65.3566     71.238   -19.314
66.3073     71.496   -23.829
67.2717     71.729   -28.422
68.2502     71.927   -32.865
69.2429     72.116   -37.281
70.2501     72.277   -41.747
71.2719     72.421   -46.194
72.3086     72.558   -50.693
73.3603     72.690   -55.238
74.4274     72.812   -59.850
75.5099     72.916   -64.385
76.6083     73.021   -68.793
77.7226     73.119   -73.137
78.8531     73.206   -77.388
80.0000     73.282   -81.523
81.1636     73.358   -85.607
82.3442     73.421   -89.721
83.5419     73.480   -93.808
84.7570     73.542   -97.918
85.9899     73.606  -102.004
87.2406     73.674  -106.037
88.5096     73.742  -109.937
89.7970     73.808  -113.750
91.1031     73.864  -117.500
92.4282     73.919  -121.286
93.7726     73.979  -125.209
95.1366     74.057  -129.302
96.5204     74.157  -133.525
97.9243     74.276  -137.729
99.3486     74.404  -141.803
100.794     74.529  -145.714
102.260     74.640  -149.603
103.747     74.732  -153.503
105.256     74.818  -157.580
106.787     74.895  -161.805
108.340     74.957  -165.962
109.916     75.043  -170.084
111.515     75.109  -174.101
113.137     75.199  -177.986
114.783     75.307   178.035
116.452     75.411   173.987
118.146     75.526   169.939
119.865     75.632   165.903
121.608     75.732   161.883
123.377     75.833   157.909
125.171     75.935   153.943
126.992     76.044   149.830
128.839     76.144   145.586
130.713     76.212   141.187
132.615     76.234   136.815
134.543     76.242   132.684
136.500     76.289   128.674
138.486     76.338   124.700
140.500     76.298   120.455
142.544     76.213   116.513
144.617     76.195   113.175
146.721     76.185   109.982
148.855     76.192   106.711
151.020     76.175   103.450
153.217     76.152   100.283
155.445     76.143    97.112
157.706     76.154    94.325
160.000     76.198    91.508
162.327     76.243    88.661
164.688     76.289    85.953
167.084     76.322    83.038
169.514     76.346    79.978
171.980     76.331    76.538
174.481     76.232    73.834
177.019     76.213    72.037
179.594     76.252    69.745
182.206     76.262    66.936
184.856     76.266    64.644
187.545     76.305    62.798
190.273     76.322    60.378
193.041     76.257    57.541
195.849     76.208    55.513
198.697     76.206    53.596
201.587     76.169    51.597
204.520     76.117    49.862
207.494     76.126    48.198
210.512     76.109    46.398
213.574     76.060    44.905
216.681     76.054    43.545
219.833     76.063    41.889
223.030     76.065    40.558
226.274     76.087    39.201
229.565     76.060    37.572
232.905     76.054    36.006
236.292     76.024    34.746
239.729     76.007    33.657
243.216     75.998    32.279
246.754     75.957    30.782
250.343     75.781    29.946
253.984     75.763    29.909
257.678     75.832    29.171
261.426     75.903    28.051
265.229     75.885    26.641
269.087     75.799    25.795
273.001     75.780    24.962
276.972     75.698    24.288
281.000     75.692    24.643
285.088     75.815    23.833
289.234     75.847    22.686
293.441     75.876    21.537
297.709     75.793    20.154
302.040     75.685    19.124
306.433     75.606    18.385
310.890     75.563    17.380
315.412     75.393    17.108
320.000     75.361    16.341
324.655     75.144    15.330
329.377     74.927    15.242
334.168     74.742    16.281
339.028     74.772    16.404
343.959     74.699    15.761
348.962     74.623    15.385
354.038     74.441    15.313
359.188     74.319    15.910
364.412     74.192    15.293
369.713     74.053    16.247
375.090     74.011    15.925
380.546     73.715    16.116
386.081     73.600    16.961
391.697     73.423    18.127
397.394     73.427    19.169
403.175     73.432    19.287
409.039     73.314    20.310
414.989     73.334    20.878
421.025     73.334    21.116
427.149     73.262    21.937
433.362     73.452    22.388
439.665     73.476    21.506
446.060     73.432    20.537
452.548     73.328    19.552
459.131     73.089    19.793
465.809     73.086    19.354
472.584     72.899    19.059
479.458     72.939    18.604
486.432     72.781    16.855
493.507     72.570    16.905
500.686     72.614    16.400
507.968     72.521    15.006
515.357     72.365    14.118
522.853     72.304    13.431
530.458     72.215    12.036
538.174     72.045    10.294
546.002     71.727     9.303
553.943     71.461     8.851
562.001     71.189     8.550
570.175     70.843     8.774
578.469     70.541     9.344
586.883     70.216    10.195
595.419     69.879    11.607
604.080     69.598    13.692
612.866     69.358    16.207
621.780     69.234    18.970
630.824     69.214    21.840
640.000     69.307    24.645
649.309     69.500    27.099
658.753     69.770    29.192
668.335     70.104    30.731
678.056     70.472    31.697
687.919     70.844    32.056
697.925     71.206    31.923
708.077     71.534    31.280
718.376     71.832    30.220
728.825     72.080    28.856
739.426     72.269    27.213
750.181     72.414    25.276
761.093     72.494    23.339
772.163     72.512    21.325
783.394     72.464    19.296
794.789     72.355    17.343
806.349     72.178    15.594
818.078     71.952    14.058
829.977     71.670    12.885
842.050     71.357    12.123
854.298     71.018    11.934
866.724     70.692    12.297
879.330     70.390    13.321
892.120     70.145    14.814
905.097     69.999    16.637
918.262     69.967    18.583
931.618     70.037    20.314
945.169     70.202    21.540
958.917     70.420    22.106
972.864     70.649    22.039
987.015     70.855    21.223
1001.37     70.997    19.773
1015.94     71.070    17.847
1030.71     71.035    15.629
1045.71     70.888    13.264
1060.92     70.617    10.910
1076.35     70.222     8.907
1092.00     69.707     7.454
1107.89     69.091     6.926
1124.00     68.427     7.560
1140.35     67.783     9.726
1156.94     67.255    13.224
1173.77     66.976    17.668
1190.84     66.953    22.053
1208.16     67.164    25.481
1225.73     67.488    27.505
1243.56     67.813    28.085
1261.65     68.038    27.586
1280.00     68.118    26.430
1298.62     68.021    25.069
1317.51     67.763    24.183
1336.67     67.366    24.094
1356.11     66.930    25.383
1375.84     66.573    28.176
1395.85     66.430    32.155
1416.15     66.593    36.142
1436.75     67.009    39.024
1457.65     67.549    40.082
1478.85     68.084    39.415
1500.36     68.477    37.313
1522.19     68.698    34.233
1544.33     68.715    30.721
1566.79     68.531    27.233
1589.58     68.160    24.271
1612.70     67.661    22.184
1636.16     67.104    21.261
1659.95     66.595    21.394
1684.10     66.198    22.215
1708.60     65.954    22.860
1733.45     65.810    22.637
1758.66     65.645    21.169
1784.24     65.348    18.625
1810.19     64.826    15.313
1836.52     64.015    11.819
1863.24     62.877     9.140
1890.34     61.430     8.085
1917.83     59.844     9.908
1945.73     58.348    14.905
1974.03     57.282    21.199
2002.74     56.620    25.449
2031.87     55.758    26.260
2061.43     54.050    23.025
2091.41     50.501    16.733
2121.83     39.304    -1.337
2152.69     40.896  -166.417
2184.01     51.972   179.255
2215.77     56.297   172.013
2248.00     58.898   166.532
2280.70     60.706   162.681
2313.87     62.137   160.108
2347.53     63.411   158.155
2381.68     64.594   156.081
2416.32     65.670   153.326
2451.46     66.586   149.961
2487.12     67.329   146.265
2523.30     67.884   142.593
2560.00     68.282   139.180
2597.24     68.561   136.253
2635.01     68.764   133.927
2673.34     68.945   132.113
2712.23     69.129   130.666
2751.68     69.325   129.254
2791.70     69.492   127.706
2832.31     69.607   126.155
2873.50     69.666   124.932
2915.30     69.722   124.202
2957.70     69.827   123.728
3000.72     69.981   123.158
3044.37     70.145   122.228
3088.65     70.281   121.122
3133.58     70.389   119.968
3179.16     70.480   118.747
3225.40     70.530   117.397
3272.31     70.530   116.235
3319.91     70.507   115.592
3368.20     70.542   115.350
3417.19     70.676   115.056
3466.89     70.864   114.256
3517.32     71.046   112.943
3568.48     71.189   111.250
3620.39     71.282   109.371
3673.05     71.325   107.575
3726.47     71.368   106.134
3780.67     71.479   104.709
3835.67     71.631   102.783
3891.46     71.744   100.384
3948.06     71.823    97.962
4005.49     71.932    95.420
4063.75     72.034    92.319
4122.86     72.062    88.903
4182.82     72.060    85.591
4243.66     72.081    81.902
4305.39     72.027    77.393
4368.01     71.777    72.751
4431.55     71.387    68.966
4496.01     70.969    66.112
4561.40     70.563    64.117
4627.75     70.243    62.946
4695.06     70.058    62.049
4763.35     69.968    61.122
4832.64     70.002    60.085
4902.93     70.127    58.271
4974.24     70.246    55.948
5046.60     70.447    53.260
5120.00     70.645    48.995
5194.47     70.583    44.063
5270.03     70.383    40.066
5346.68     70.188    36.338
5424.45     69.880    33.016
5503.35     69.612    30.867
5583.40     69.459    28.884
5664.61     69.389    26.901
5747.01     69.402    24.051
5830.60     69.267    20.589
5915.41     69.123    17.691
6001.45     68.978    13.871
6088.74     68.602    10.148
6177.30     68.170     7.158
6267.15     67.638     4.949
6358.31     67.189     3.918
6450.80     66.777     2.995
6544.62     66.532     2.773
6639.82     66.351     0.547
6736.40     65.912    -1.318
6834.38     65.496    -3.098
6933.79     64.913    -4.373
7034.64     64.357    -5.200
7136.96     63.698    -4.863
7240.77     63.178    -4.749
7346.09     62.386    -3.286
7452.94     61.936    -0.061
7561.35     61.615     3.093
7671.33     61.513     5.300
7782.91     61.433     7.228
7896.12     61.257     7.330
8010.97     60.921     8.611
8127.49     60.424    10.018
8245.71     59.909    13.831
8365.65     59.469    20.599
8487.33     59.754    26.797
8610.78     60.113    32.139
8736.03     60.823    36.491
8863.09     62.064    37.084
8992.01     62.947    31.779
9122.80     63.094    23.211
9255.50     62.376    15.816
9390.12     60.943    12.501
9526.70     59.560    15.695
9665.27     58.838    23.533
9805.86     58.781    31.032
9948.49     59.075    37.379
10093.2     59.824    44.901
10240.0     61.290    48.801
10388.9     62.542    47.348
10540.1     63.528    44.735
10693.4     64.427    40.209
10848.9     64.750    33.691
11006.7     64.508    28.673
11166.8     64.080    27.556
11329.2     64.017    29.557
11494.0     64.419    31.097
11661.2     64.976    30.400
11830.8     65.482    29.126
12002.9     66.220    26.626
12177.5     66.852    21.192
12354.6     67.056    13.909
12534.3     66.764     8.269
12716.6     66.557     5.260
12901.6     66.637     2.726
13089.2     66.928    -2.113
13279.6     67.001    -9.253
13472.8     66.641   -17.855
13668.8     65.754   -25.281
13867.6     64.454   -30.127
14069.3     63.037   -30.742
14273.9     61.904   -26.234
14481.5     61.682   -20.269
14692.2     62.151   -18.010
14905.9     62.488   -20.223
15122.7     62.437   -23.975
15342.7     62.200   -26.943
15565.8     61.908   -30.501
15792.2     61.443   -34.231
16021.9     60.864   -38.003
16255.0     60.056   -41.838
16491.4     59.030   -44.605
16731.3     57.908   -45.819
16974.7     56.733   -45.263
17221.6     55.763   -43.244
17472.1     55.021   -41.450
17726.2     54.264   -40.832
17984.0     53.083   -39.999
18245.6     52.006   -35.657
18511.0     51.262   -31.790
18780.2     50.354   -29.070
19053.4     49.005   -25.573
19330.5     46.868   -14.536
19611.7     46.265    11.725
19897.0     49.127    29.445
20186.4     51.832    29.804
20480.0     53.174    23.323
20777.9     53.845    19.123
21080.1     54.659    15.138
21386.7     55.033     8.184
21697.8     55.159     1.681
22013.4     55.021    -4.954
22333.6     54.799   -11.518
22658.4     54.339   -18.864
22988.0     53.627   -26.611
23322.4     52.463   -34.155
23661.6     51.071   -39.616
24005.8     49.577   -44.840
24355.0     47.761   -49.120
24709.2     45.583   -51.622
25068.6     43.171   -50.242
25433.2     40.679   -42.870
25803.2     39.613   -31.381
26178.5     38.897   -27.598
26559.3     37.009   -22.698
26945.6     35.536   -10.128
27337.5     34.818     5.991
27735.2     35.693    24.368
28138.6     37.940    40.032
28547.9     40.721    30.047
28963.1     40.612    17.159
29384.4     38.879    17.051
29811.8     39.136    23.914
30245.4     39.570    19.927
30685.3     39.104    12.440
31131.7     37.656     4.684
31584.5     34.907    -1.210
32043.9     28.926    -1.822
32510.0     25.942    64.998
32982.8     32.424    87.119
33462.6     35.682    78.541
33949.3     36.970    64.358
34443.1     37.174    50.843
34944.1     36.391    40.425
35452.4     35.709    30.633
35968.0     34.027    17.662
36491.2     31.081     3.434
37022.0     26.631     6.562
37560.5     23.564    20.344
38106.8     21.857    35.890
38661.1     22.029  -157.817
39223.4     23.700    40.412
39793.9     23.885    31.699
