Freq[Hz]     dBSPL  Phase[Deg]
Freq[Hz]     dBSPL  Phase[Deg]
5.00000    -14.381   -17.203
5.07273    -14.017   -17.282
5.14651    -13.590   -17.369
5.22137    -13.144   -17.458
5.29732    -12.698   -17.549
5.37437    -12.252   -17.641
5.45254    -11.807   -17.734
5.53185    -11.361   -17.829
5.61231    -10.915   -17.925
5.69394    -10.469   -18.022
5.77676    -10.023   -18.121
5.86079     -9.577   -18.222
5.94604     -9.131   -18.324
6.03252     -8.685   -18.427
6.12027     -8.239   -18.532
6.20929     -7.793   -18.639
6.29961     -7.347   -18.747
6.39124     -6.901   -18.856
6.48420     -6.454   -18.968
6.57851     -6.008   -19.081
6.67420     -5.562   -19.195
6.77128     -5.116   -19.312
6.86977     -4.670   -19.430
6.96969     -4.223   -19.550
7.07107     -3.777   -19.671
7.17392     -3.330   -19.795
7.27827     -2.884   -19.920
7.38413     -2.438   -20.047
7.49154     -1.991   -20.176
7.60050     -1.545   -20.307
7.71105     -1.098   -20.440
7.82321     -0.651   -20.575
7.93701     -0.205   -20.712
8.05245      0.242   -20.851
8.16958      0.689   -20.992
8.28841      1.136   -21.135
8.40896      1.582   -21.281
8.53128      2.029   -21.428
8.65537      2.476   -21.578
8.78126      2.923   -21.730
8.90899      3.370   -21.884
9.03857      3.817   -22.041
9.17004      4.265   -22.200
9.30342      4.712   -22.361
9.43874      5.159   -22.525
9.57603      5.607   -22.691
9.71532      6.054   -22.860
9.85663      6.501   -23.032
10.0000      6.949   -23.206
10.1455      7.397   -23.382
10.2930      7.844   -23.562
10.4427      8.292   -23.744
10.5946      8.740   -23.929
10.7487      9.188   -24.117
10.9051      9.636   -24.307
11.0637     10.084   -24.501
11.2246     10.532   -24.697
11.3879     10.981   -24.897
11.5535     11.429   -25.100
11.7216     11.877   -25.305
11.8921     12.326   -25.514
12.0650     12.775   -25.727
12.2405     13.223   -25.942
12.4186     13.672   -26.161
12.5992     14.121   -26.384
12.7825     14.570   -26.609
12.9684     15.019   -26.839
13.1570     15.469   -27.072
13.3484     15.918   -27.308
13.5426     16.368   -27.549
13.7395     16.818   -27.793
13.9394     17.267   -28.041
14.1421     17.717   -28.293
14.3478     18.167   -28.549
14.5565     18.618   -28.809
14.7683     19.068   -29.074
14.9831     19.519   -29.342
15.2010     19.969   -29.615
15.4221     20.420   -29.892
15.6464     20.871   -30.174
15.8740     21.322   -30.461
16.1049     21.774   -30.752
16.3392     22.225   -31.048
16.5768     22.677   -31.348
16.8179     23.129   -31.654
17.0626     23.581   -31.965
17.3107     24.033   -32.281
17.5625     24.486   -32.602
17.8180     24.938   -32.929
18.0771     25.391   -33.261
18.3401     25.844   -33.598
18.6068     26.298   -33.942
18.8775     26.751   -34.291
19.1521     27.205   -34.646
19.4306     27.659   -35.008
19.7133     28.114   -35.375
20.0000     28.568   -35.749
20.2909     29.036   -36.106
20.5860     29.573   -36.334
20.8855     30.194   -36.502
21.1893     30.811   -37.277
21.4975     31.330   -39.075
21.8102     31.728   -41.070
22.1274     32.024   -41.851
22.4492     32.277   -41.303
22.7758     32.625   -40.498
23.1071     33.127   -40.191
23.4432     33.706   -40.323
23.7841     34.267   -40.638
24.1301     34.789   -41.154
24.4811     35.279   -41.890
24.8372     35.740   -42.811
25.1984     36.187   -43.800
25.5649     36.634   -44.713
25.9368     37.101   -45.460
26.3141     37.602   -46.112
26.6968     38.136   -46.832
27.0851     38.662   -47.779
27.4791     39.149   -48.937
27.8788     39.602   -50.075
28.2843     40.048   -51.030
28.6957     40.495   -51.930
29.1131     40.945   -52.899
29.5365     41.405   -53.860
29.9661     41.889   -54.733
30.4020     42.403   -55.608
30.8442     42.934   -56.682
31.2929     43.440   -57.965
31.7480     43.898   -59.277
32.2098     44.342   -60.483
32.6783     44.810   -61.606
33.1536     45.300   -62.684
33.6359     45.788   -63.946
34.1251     46.301   -65.394
34.6215     46.860   -66.757
35.1250     47.377   -68.328
35.6359     47.782   -70.116
36.1543     48.120   -71.406
36.6802     48.539   -71.908
37.2137     49.062   -72.731
37.7550     49.629   -74.446
38.3041     50.168   -76.432
38.8613     50.671   -78.142
39.4265     51.144   -79.629
40.0000     51.607   -81.094
40.5818     52.077   -82.575
41.1721     52.562   -84.156
41.7710     53.058   -85.895
42.3785     53.550   -87.686
42.9949     54.025   -89.461
43.6203     54.498   -91.228
44.2548     54.995   -93.017
44.8985     55.500   -94.871
45.5515     55.985   -96.794
46.2141     56.459   -98.726
46.8863     56.948  -100.700
47.5683     57.437  -102.792
48.2602     57.895  -104.879
48.9621     58.339  -106.894
49.6743     58.806  -108.975
50.3968     59.300  -111.249
51.1299     59.786  -113.670
51.8736     60.250  -116.116
52.6281     60.699  -118.527
53.3936     61.147  -120.829
54.1702     61.599  -123.075
54.9581     62.054  -125.473
55.7575     62.493  -128.186
56.5685     62.920  -131.016
57.3914     63.340  -133.767
58.2261     63.761  -136.455
59.0730     64.172  -139.177
59.9323     64.567  -141.953
60.8040     64.955  -144.812
61.6884     65.345  -147.755
62.5857     65.734  -150.725
63.4960     66.111  -153.676
64.4196     66.464  -156.694
65.3566     66.789  -159.831
66.3073     67.095  -163.035
67.2717     67.398  -166.187
68.2502     67.704  -169.260
69.2429     68.008  -172.274
70.2501     68.303  -175.331
71.2719     68.587  -178.541
72.3086     68.848   178.104
73.3603     69.075   174.738
74.4274     69.271   171.496
75.5099     69.464   168.396
76.6083     69.667   165.353
77.7226     69.868   162.278
78.8531     70.052   159.168
80.0000     70.213   156.084
81.1636     70.348   153.067
82.3442     70.467   150.066
83.5419     70.592   147.096
84.7570     70.718   144.191
85.9899     70.827   141.307
87.2406     70.916   138.416
88.5096     70.995   135.622
89.7970     71.070   132.960
91.1031     71.136   130.333
92.4282     71.193   127.711
93.7726     71.248   125.141
95.1366     71.305   122.660
96.5204     71.353   120.213
97.9243     71.386   117.777
99.3486     71.411   115.370
100.794     71.433   113.051
102.260     71.448   110.821
103.747     71.461   108.638
105.256     71.466   106.507
106.787     71.465   104.463
108.340     71.466   102.515
109.916     71.486   100.556
111.515     71.505    98.579
113.137     71.508    96.602
114.783     71.495    94.782
116.452     71.485    93.050
118.146     71.489    91.304
119.865     71.494    89.437
121.608     71.481    87.661
123.377     71.446    85.997
125.171     71.414    84.479
126.992     71.392    83.041
128.839     71.384    81.673
130.713     71.382    80.287
132.615     71.391    78.898
134.543     71.395    77.486
136.500     71.400    76.131
138.486     71.412    74.781
140.500     71.423    73.386
142.544     71.421    71.931
144.617     71.404    70.544
146.721     71.397    69.264
148.855     71.398    68.012
151.020     71.404    66.736
153.217     71.400    65.401
155.445     71.382    64.129
157.706     71.371    62.995
160.000     71.375    61.860
162.327     71.383    60.623
164.688     71.367    59.417
167.084     71.350    58.402
169.514     71.352    57.446
171.980     71.372    56.428
174.481     71.402    55.335
177.019     71.431    54.134
179.594     71.446    52.845
182.206     71.438    51.608
184.856     71.425    50.462
187.545     71.416    49.343
190.273     71.405    48.203
193.041     71.385    47.135
195.849     71.367    46.153
198.697     71.353    45.223
201.587     71.345    44.339
204.520     71.354    43.426
207.494     71.360    42.374
210.512     71.336    41.282
213.574     71.282    40.463
216.681     71.258    40.052
219.833     71.309    39.691
223.030     71.428    38.938
226.274     71.535    37.484
229.565     71.540    35.648
232.905     71.441    34.086
236.292     71.318    33.231
239.729     71.259    32.842
243.216     71.259    32.412
246.754     71.289    31.788
250.343     71.305    30.956
253.984     71.301    30.077
257.678     71.272    29.356
261.426     71.287    28.877
265.229     71.348    28.211
269.087     71.401    27.209
273.001     71.410    26.034
276.972     71.384    24.834
281.000     71.305    23.856
285.088     71.216    23.421
289.234     71.201    23.465
293.441     71.307    23.214
297.709     71.421    22.176
302.040     71.453    20.685
306.433     71.395    19.494
310.890     71.343    18.856
315.412     71.321    18.243
320.000     71.297    17.639
324.655     71.287    17.204
329.377     71.321    16.815
334.168     71.380    16.206
339.028     71.447    15.331
343.959     71.479    14.257
348.962     71.447    13.371
354.038     71.453    13.032
359.188     71.587    12.287
364.412     71.659    10.468
369.713     71.554     8.833
375.090     71.430     8.085
380.546     71.394     7.630
386.081     71.361     6.794
391.697     71.289     6.275
397.394     71.281     6.138
403.175     71.316     5.595
409.039     71.285     4.740
414.989     71.213     4.445
421.025     71.258     4.813
427.149     71.461     4.556
433.362     71.634     3.089
439.665     71.688     1.219
446.060     71.570    -0.586
452.548     71.412    -1.515
459.131     71.329    -1.932
465.809     71.310    -2.379
472.584     71.216    -2.931
479.458     71.138    -2.821
486.432     71.220    -2.505
493.507     71.365    -3.179
500.686     71.376    -4.320
507.968     71.345    -4.755
515.357     71.441    -4.922
522.853     71.581    -6.055
530.458     71.569    -7.480
538.174     71.494    -8.329
546.002     71.499    -8.394
553.943     71.655    -9.246
562.001     71.677   -11.014
570.175     71.581   -12.706
578.469     71.452   -13.117
586.883     71.419   -13.345
595.419     71.383   -13.786
604.080     71.414   -13.791
612.866     71.526   -14.176
621.780     71.560   -15.756
630.824     71.490   -17.032
640.000     71.433   -16.940
649.309     71.517   -16.481
658.753     71.750   -16.999
668.335     71.953   -19.167
678.056     71.920   -21.943
687.919     71.765   -24.209
697.925     71.537   -25.269
708.077     71.313   -25.188
718.376     71.246   -24.177
728.825     71.451   -24.122
739.426     71.517   -25.546
750.181     71.448   -26.289
761.093     71.521   -26.330
772.163     71.695   -27.415
783.394     71.731   -29.182
794.789     71.676   -30.577
806.349     71.591   -31.401
818.078     71.549   -32.372
829.977     71.551   -33.466
842.050     71.452   -34.755
854.298     71.330   -34.929
866.724     71.365   -34.710
879.330     71.554   -35.272
892.120     71.562   -36.823
905.097     71.525   -38.008
918.262     71.569   -38.762
931.618     71.653   -39.861
945.169     71.592   -41.338
958.917     71.487   -42.571
972.864     71.496   -42.720
987.015     71.707   -43.349
1001.37     71.864   -45.698
1015.94     71.736   -48.767
1030.71     71.409   -50.545
1045.71     71.212   -50.967
1060.92     71.193   -51.241
1076.35     71.184   -51.516
1092.00     71.125   -52.189
1107.89     70.964   -53.335
1124.00     70.813   -53.611
1140.35     70.883   -52.990
1156.94     71.105   -52.911
1173.77     71.325   -53.308
1190.84     71.642   -54.665
1208.16     71.858   -57.853
1225.73     71.716   -61.499
1243.56     71.399   -63.616
1261.65     71.163   -64.468
1280.00     71.002   -64.984
1298.62     70.899   -64.674
1317.51     71.034   -64.821
1336.67     71.243   -65.850
1356.11     71.318   -67.971
1375.84     71.157   -69.556
1395.85     71.072   -70.057
1416.15     71.143   -70.500
1436.75     71.316   -71.771
1457.65     71.336   -74.257
1478.85     71.180   -76.396
1500.36     71.075   -77.310
1522.19     71.017   -77.429
1544.33     71.139   -78.482
1566.79     71.166   -80.442
1589.58     71.202   -82.576
1612.70     71.143   -84.242
1636.16     71.033   -85.049
1659.95     71.008   -85.770
1684.10     71.098   -87.598
1708.60     71.193   -89.538
1733.45     71.142   -91.368
1758.66     71.098   -93.205
1784.24     71.124   -94.864
1810.19     71.054   -96.411
1836.52     70.923   -98.012
1863.24     70.791   -99.034
1890.34     70.799   -98.400
1917.83     70.903   -98.289
1945.73     71.168  -100.333
1974.03     71.459  -103.240
2002.74     71.694  -104.999
2031.87     71.745  -106.943
2061.43     71.619  -110.423
2091.41     71.483  -114.042
2121.83     71.513  -117.129
2152.69     71.595  -120.171
2184.01     71.433  -122.930
2215.77     71.164  -124.458
2248.00     71.038  -125.721
2280.70     70.992  -127.732
2313.87     70.914  -130.291
2347.53     70.925  -132.883
2381.68     71.016  -135.591
2416.32     71.016  -137.709
2451.46     70.981  -139.123
2487.12     71.015  -140.916
2523.30     71.064  -143.292
2560.00     71.088  -145.479
2597.24     71.227  -147.954
2635.01     71.397  -151.192
2673.34     71.444  -154.783
2712.23     71.402  -158.859
2751.68     71.273  -163.288
2791.70     71.078  -167.036
2832.31     70.857  -169.622
2873.50     70.759  -171.710
2915.30     70.781  -173.832
2957.70     70.936  -176.704
3000.72     71.097   179.327
3044.37     71.167   174.692
3088.65     71.128   169.912
3133.58     70.988   165.100
3179.16     70.838   160.630
3225.40     70.738   156.567
3272.31     70.744   152.841
3319.91     70.779   148.830
3368.20     70.819   144.416
3417.19     70.851   139.594
3466.89     70.919   134.540
3517.32     70.991   128.838
3568.48     70.996   122.934
3620.39     70.959   116.996
3673.05     70.939   111.004
3726.47     70.941   104.877
3780.67     70.937    98.926
3835.67     70.921    93.033
3891.46     70.913    87.046
3948.06     70.933    80.935
4005.49     70.990    74.611
4063.75     71.051    68.148
4122.86     71.097    61.402
4182.82     71.020    54.455
4243.66     70.814    48.071
4305.39     70.640    43.063
4368.01     70.662    38.447
4431.55     70.822    33.212
4496.01     70.948    27.024
4561.40     70.955    20.827
4627.75     70.933    15.293
4695.06     71.054    10.476
4763.35     71.281     5.260
4832.64     71.484    -0.678
4902.93     71.634    -6.913
4974.24     71.780   -13.123
5046.60     71.935   -19.707
5120.00     71.989   -26.982
5194.47     71.811   -34.418
5270.03     71.420   -40.740
5346.68     70.979   -45.333
5424.45     70.663   -48.483
5503.35     70.489   -51.607
5583.40     70.302   -54.704
5664.61     70.115   -56.755
5747.01     70.116   -57.833
5830.60     70.347   -59.608
5915.41     70.630   -62.542
6001.45     70.861   -66.196
6088.74     71.053   -70.531
6177.30     71.116   -75.577
6267.15     70.944   -79.974
6358.31     70.737   -82.279
6450.80     70.791   -83.575
6544.62     71.086   -86.077
6639.82     71.273   -90.259
6736.40     71.270   -94.148
6834.38     71.277   -97.135
6933.79     71.337  -100.064
7034.64     71.407  -103.353
7136.96     71.432  -107.453
7240.77     71.233  -111.618
7346.09     70.958  -113.656
7452.94     70.966  -115.069
7561.35     71.049  -118.141
7671.33     70.898  -121.489
7782.91     70.694  -123.295
7896.12     70.674  -124.666
8010.97     70.705  -126.733
8127.49     70.683  -129.284
8245.71     70.552  -131.844
8365.65     70.386  -133.274
8487.33     70.383  -134.246
8610.78     70.368  -136.135
8736.03     70.227  -137.392
8863.09     70.250  -137.403
8992.01     70.538  -137.991
9122.80     70.810  -140.202
9255.50     70.960  -142.511
9390.12     71.195  -144.746
9526.70     71.441  -147.834
9665.27     71.524  -151.446
9805.86     71.487  -154.427
9948.49     71.502  -157.088
10093.2     71.524  -160.139
10240.0     71.418  -162.927
10388.9     71.373  -164.571
10540.1     71.455  -166.590
10693.4     71.555  -169.031
10848.9     71.604  -172.040
11006.7     71.628  -175.026
11166.8     71.613  -178.866
11329.2     71.424   177.642
11494.0     71.234   174.503
11661.2     70.926   171.419
11830.8     70.549   169.502
12002.9     70.179   168.434
12177.5     69.834   168.224
12354.6     69.619   168.694
12534.3     69.561   169.660
12716.6     69.722   170.056
12901.6     69.941   169.803
13089.2     70.257   168.462
13279.6     70.513   166.583
13472.8     70.738   163.766
13668.8     70.832   161.194
13867.6     70.931   158.247
14069.3     70.980   155.664
14273.9     71.070   152.930
14481.5     71.124   150.064
14692.2     71.101   147.211
14905.9     71.063   144.312
15122.7     70.910   141.887
15342.7     70.862   140.020
15565.8     70.806   138.141
15792.2     70.897   136.495
16021.9     70.942   134.092
16255.0     71.034   131.927
16491.4     71.067   129.197
16731.3     71.086   126.831
16974.7     71.065   124.129
17221.6     71.047   122.160
17472.1     71.050   120.098
17726.2     71.035   118.398
17984.0     71.021   116.053
18245.6     70.978   114.062
18511.0     70.891   111.745
18780.2     70.797   109.942
19053.4     70.661   107.847
19330.5     70.568   105.932
19611.7     70.480   104.208
19897.0     70.529   103.091
20186.4     70.635   102.262
20480.0     70.837   100.621
20777.9     71.067    98.683
21080.1     71.200    96.826
21386.7     71.287    95.334
21697.8     71.424    93.897
22013.4     71.511    92.463
22333.6     71.422    91.589
22658.4     71.096    92.265
22988.0     69.987    95.199
23322.4     65.838    73.755
