Freq[Hz]     dBSPL  Phase[Deg]
Freq[Hz]     dBSPL  Phase[Deg]
5.00000    -14.380   -17.150
5.07273    -14.016   -17.230
5.14651    -13.589   -17.317
5.22137    -13.144   -17.407
5.29732    -12.699   -17.499
5.37437    -12.254   -17.592
5.45254    -11.808   -17.686
5.53185    -11.363   -17.782
5.61231    -10.918   -17.879
5.69394    -10.472   -17.977
5.77676    -10.027   -18.077
5.86079     -9.581   -18.179
5.94604     -9.136   -18.282
6.03252     -8.690   -18.386
6.12027     -8.245   -18.492
6.20929     -7.799   -18.600
6.29961     -7.354   -18.709
6.39124     -6.908   -18.819
6.48420     -6.463   -18.932
6.57851     -6.017   -19.046
6.67420     -5.571   -19.162
6.77128     -5.126   -19.279
6.86977     -4.680   -19.398
6.96969     -4.234   -19.520
7.07107     -3.788   -19.642
7.17392     -3.342   -19.767
7.27827     -2.896   -19.893
7.38413     -2.451   -20.022
7.49154     -2.005   -20.152
7.60050     -1.559   -20.284
7.71105     -1.113   -20.419
7.82321     -0.666   -20.555
7.93701     -0.220   -20.693
8.05245      0.226   -20.833
8.16958      0.672   -20.976
8.28841      1.118   -21.120
8.40896      1.565   -21.267
8.53128      2.011   -21.416
8.65537      2.457   -21.567
8.78126      2.904   -21.721
8.90899      3.350   -21.877
9.03857      3.797   -22.035
9.17004      4.244   -22.195
9.30342      4.690   -22.358
9.43874      5.137   -22.524
9.57603      5.584   -22.692
9.71532      6.031   -22.862
9.85663      6.478   -23.035
10.0000      6.925   -23.211
10.1455      7.372   -23.389
10.2930      7.819   -23.571
10.4427      8.266   -23.754
10.5946      8.714   -23.941
10.7487      9.161   -24.131
10.9051      9.609   -24.323
11.0637     10.056   -24.519
11.2246     10.504   -24.717
11.3879     10.952   -24.918
11.5535     11.399   -25.123
11.7216     11.847   -25.331
11.8921     12.295   -25.542
12.0650     12.743   -25.756
12.2405     13.192   -25.974
12.4186     13.640   -26.195
12.5992     14.088   -26.419
12.7825     14.537   -26.647
12.9684     14.986   -26.879
13.1570     15.434   -27.114
13.3484     15.883   -27.353
13.5426     16.332   -27.596
13.7395     16.782   -27.842
13.9394     17.231   -28.092
14.1421     17.680   -28.347
14.3478     18.130   -28.605
14.5565     18.579   -28.868
14.7683     19.029   -29.135
14.9831     19.479   -29.406
15.2010     19.929   -29.681
15.4221     20.380   -29.961
15.6464     20.830   -30.246
15.8740     21.281   -30.535
16.1049     21.732   -30.829
16.3392     22.183   -31.127
16.5768     22.634   -31.431
16.8179     23.085   -31.739
17.0626     23.537   -32.053
17.3107     23.989   -32.372
17.5625     24.441   -32.696
17.8180     24.893   -33.026
18.0771     25.345   -33.361
18.3401     25.798   -33.701
18.6068     26.250   -34.048
18.8775     26.704   -34.400
19.1521     27.157   -34.759
19.4306     27.610   -35.123
19.7133     28.064   -35.494
20.0000     28.518   -35.872
20.2909     28.985   -36.233
20.5860     29.521   -36.476
20.8855     30.141   -36.669
21.1893     30.757   -37.470
21.4975     31.276   -39.281
21.8102     31.673   -41.280
22.1274     31.966   -42.064
22.4492     32.214   -41.519
22.7758     32.560   -40.712
23.1071     33.064   -40.392
23.4432     33.646   -40.505
23.7841     34.209   -40.803
24.1301     34.731   -41.321
24.4811     35.220   -42.084
24.8372     35.681   -43.041
25.1984     36.126   -44.048
25.5649     36.573   -44.958
25.9368     37.039   -45.696
26.3141     37.541   -46.342
26.6968     38.075   -47.063
27.0851     38.602   -48.017
27.4791     39.090   -49.184
27.8788     39.545   -50.335
28.2843     39.991   -51.310
28.6957     40.435   -52.231
29.1131     40.882   -53.214
29.5365     41.340   -54.177
29.9661     41.823   -55.050
30.4020     42.336   -55.924
30.8442     42.866   -56.993
31.2929     43.373   -58.268
31.7480     43.831   -59.580
32.2098     44.275   -60.797
32.6783     44.743   -61.932
33.1536     45.231   -63.020
33.6359     45.717   -64.288
34.1251     46.232   -65.726
34.6215     46.795   -67.065
35.1250     47.313   -68.626
35.6359     47.720   -70.433
36.1543     48.061   -71.765
36.6802     48.479   -72.301
37.2137     48.999   -73.140
37.7550     49.563   -74.856
38.3041     50.103   -76.841
38.8613     50.607   -78.556
39.4265     51.080   -80.054
40.0000     51.541   -81.529
40.5818     52.011   -83.012
41.1721     52.496   -84.596
41.7710     52.993   -86.337
42.3785     53.488   -88.136
42.9949     53.966   -89.941
43.6203     54.438   -91.756
44.2548     54.931   -93.580
44.8985     55.430   -95.437
45.5515     55.912   -97.346
46.2141     56.386   -99.268
46.8863     56.876  -101.242
47.5683     57.365  -103.344
48.2602     57.823  -105.444
48.9621     58.265  -107.466
49.6743     58.731  -109.548
50.3968     59.226  -111.823
51.1299     59.712  -114.251
51.8736     60.178  -116.706
52.6281     60.627  -119.129
53.3936     61.076  -121.439
54.1702     61.529  -123.694
54.9581     61.985  -126.114
55.7575     62.424  -128.861
56.5685     62.847  -131.717
57.3914     63.265  -134.474
58.2261     63.685  -137.162
59.0730     64.095  -139.888
59.9323     64.490  -142.677
60.8040     64.877  -145.547
61.6884     65.267  -148.497
62.5857     65.657  -151.471
63.4960     66.034  -154.434
64.4196     66.386  -157.473
65.3566     66.709  -160.631
66.3073     67.014  -163.847
67.2717     67.317  -167.000
68.2502     67.623  -170.076
69.2429     67.928  -173.105
70.2501     68.223  -176.188
71.2719     68.505  -179.420
72.3086     68.765   177.220
73.3603     68.990   173.857
74.4274     69.187   170.608
75.5099     69.380   167.488
76.6083     69.583   164.425
77.7226     69.784   161.337
78.8531     69.967   158.213
80.0000     70.127   155.111
81.1636     70.261   152.073
82.3442     70.380   149.046
83.5419     70.504   146.053
84.7570     70.626   143.134
85.9899     70.732   140.246
87.2406     70.820   137.349
88.5096     70.900   134.549
89.7970     70.973   131.879
91.1031     71.039   129.235
92.4282     71.096   126.596
93.7726     71.151   124.015
95.1366     71.206   121.523
96.5204     71.254   119.059
97.9243     71.286   116.602
99.3486     71.311   114.176
100.794     71.332   111.837
102.260     71.346   109.584
103.747     71.357   107.379
105.256     71.360   105.227
106.787     71.356   103.166
108.340     71.355   101.210
109.916     71.373    99.255
111.515     71.393    97.279
113.137     71.397    95.296
114.783     71.386    93.463
116.452     71.378    91.705
118.146     71.383    89.923
119.865     71.388    88.018
121.608     71.375    86.204
123.377     71.338    84.499
125.171     71.304    82.944
126.992     71.278    81.473
128.839     71.268    80.075
130.713     71.264    78.656
132.615     71.268    77.238
134.543     71.269    75.796
136.500     71.269    74.407
138.486     71.274    73.034
140.500     71.278    71.643
142.544     71.274    70.208
144.617     71.259    68.824
146.721     71.255    67.517
148.855     71.256    66.217
151.020     71.257    64.898
153.217     71.247    63.533
155.445     71.223    62.244
157.706     71.206    61.113
160.000     71.209    59.995
162.327     71.220    58.762
164.688     71.208    57.523
167.084     71.192    56.452
169.514     71.189    55.444
171.980     71.205    54.395
174.481     71.234    53.274
177.019     71.262    52.022
179.594     71.269    50.677
182.206     71.251    49.425
184.856     71.231    48.303
187.545     71.225    47.194
190.273     71.219    46.011
193.041     71.197    44.871
195.849     71.173    43.844
198.697     71.157    42.892
201.587     71.150    41.960
204.520     71.158    40.955
207.494     71.158    39.798
210.512     71.121    38.610
213.574     71.048    37.716
216.681     71.001    37.290
219.833     71.036    36.973
223.030     71.147    36.248
226.274     71.246    34.805
229.565     71.243    33.002
232.905     71.144    31.479
236.292     71.024    30.581
239.729     70.957    30.125
243.216     70.942    29.689
246.754     70.965    29.120
250.343     70.983    28.282
253.984     70.972    27.373
257.678     70.937    26.636
261.426     70.949    26.156
265.229     71.010    25.461
269.087     71.057    24.372
273.001     71.048    23.133
276.972     71.003    21.965
281.000     70.919    21.040
285.088     70.831    20.561
289.234     70.799    20.527
293.441     70.880    20.332
297.709     70.987    19.458
302.040     71.034    18.080
306.433     70.994    16.861
310.890     70.956    16.122
315.412     70.939    15.300
320.000     70.895    14.440
324.655     70.839    13.834
329.377     70.817    13.540
334.168     70.841    13.174
339.028     70.905    12.587
343.959     70.965    11.649
348.962     70.958    10.664
354.038     70.958    10.087
359.188     71.048     9.284
364.412     71.094     7.635
369.713     70.994     6.126
375.090     70.866     5.337
380.546     70.805     4.927
386.081     70.767     4.269
391.697     70.714     3.800
397.394     70.702     3.620
403.175     70.728     3.072
409.039     70.693     2.224
414.989     70.610     1.895
421.025     70.634     2.354
427.149     70.828     2.238
433.362     71.004     0.878
439.665     71.065    -0.930
446.060     70.958    -2.754
452.548     70.789    -3.679
459.131     70.698    -3.890
465.809     70.724    -4.111
472.584     70.698    -4.923
479.458     70.627    -5.393
486.432     70.649    -5.563
493.507     70.701    -6.390
500.686     70.622    -7.261
507.968     70.544    -7.124
515.357     70.651    -6.737
522.853     70.831    -7.556
530.458     70.858    -8.811
538.174     70.841    -9.632
546.002     70.878    -9.972
553.943     71.029   -11.110
562.001     71.039   -13.061
570.175     70.947   -14.845
578.469     70.754   -15.482
586.883     70.632   -15.391
595.419     70.580   -15.186
604.080     70.670   -14.729
612.866     70.839   -15.207
621.780     70.905   -17.001
630.824     70.821   -18.452
640.000     70.739   -18.300
649.309     70.825   -17.677
658.753     71.064   -18.092
668.335     71.278   -20.124
678.056     71.299   -22.907
687.919     71.191   -25.319
697.925     70.982   -26.676
708.077     70.738   -26.917
718.376     70.608   -26.158
728.825     70.760   -25.951
739.426     70.857   -27.151
750.181     70.789   -27.933
761.093     70.808   -27.977
772.163     70.960   -28.793
783.394     71.017   -30.341
794.789     70.986   -31.459
806.349     70.966   -32.151
818.078     71.012   -33.226
829.977     71.087   -34.801
842.050     70.994   -36.782
854.298     70.792   -37.518
866.724     70.741   -37.237
879.330     70.922   -37.593
892.120     70.944   -39.383
905.097     70.855   -40.713
918.262     70.841   -41.052
931.618     70.956   -41.664
945.169     71.000   -43.341
958.917     70.949   -45.284
972.864     70.883   -46.014
987.015     70.995   -46.706
1001.37     71.136   -48.951
1015.94     71.027   -52.093
1030.71     70.714   -54.113
1045.71     70.502   -54.869
1060.92     70.410   -55.337
1076.35     70.322   -55.716
1092.00     70.219   -56.475
1107.89     70.038   -57.760
1124.00     69.797   -58.350
1140.35     69.700   -57.803
1156.94     69.767   -56.974
1173.77     69.901   -56.052
1190.84     70.245   -56.237
1208.16     70.574   -58.611
1225.73     70.607   -62.175
1243.56     70.435   -64.804
1261.65     70.227   -66.451
1280.00     69.984   -67.351
1298.62     69.739   -67.216
1317.51     69.812   -66.523
1336.67     70.091   -66.908
1356.11     70.283   -68.907
1375.84     70.168   -71.429
1395.85     70.011   -72.498
1416.15     69.954   -73.203
1436.75     69.984   -73.717
1457.65     70.004   -75.050
1478.85     69.958   -76.767
1500.36     69.923   -77.957
1522.19     69.855   -78.287
1544.33     69.959   -79.057
1566.79     70.011   -80.890
1589.58     70.074   -82.560
1612.70     70.071   -83.743
1636.16     70.058   -84.906
1659.95     70.105   -86.489
1684.10     70.196   -88.625
1708.60     70.210   -90.517
1733.45     70.163   -92.171
1758.66     70.190   -94.091
1784.24     70.305   -96.117
1810.19     70.282   -98.304
1836.52     70.140  -100.330
1863.24     69.965  -101.834
1890.34     69.838  -102.546
1917.83     69.738  -103.667
1945.73     69.777  -105.771
1974.03     69.999  -108.032
2002.74     70.180  -110.121
2031.87     70.162  -113.114
2061.43     69.958  -117.135
2091.41     69.681  -120.316
2121.83     69.448  -121.801
2152.69     69.438  -122.774
2184.01     69.373  -124.645
2215.77     69.253  -126.748
2248.00     69.099  -128.792
2280.70     69.037  -130.559
2313.87     68.978  -132.600
2347.53     69.033  -135.118
2381.68     69.094  -138.010
2416.32     69.072  -140.208
2451.46     68.984  -141.707
2487.12     68.926  -143.605
2523.30     68.901  -145.700
2560.00     68.968  -147.868
2597.24     69.113  -150.162
2635.01     69.273  -153.315
2673.34     69.281  -156.969
2712.23     69.206  -160.928
2751.68     69.094  -164.616
2791.70     68.977  -168.144
2832.31     68.811  -171.598
2873.50     68.734  -174.865
2915.30     68.806  -178.053
2957.70     69.002   178.463
3000.72     69.190   173.913
3044.37     69.247   168.431
3088.65     69.137   162.774
3133.58     68.940   157.814
3179.16     68.786   153.243
3225.40     68.671   148.460
3272.31     68.553   143.879
3319.91     68.467   139.926
3368.20     68.465   135.977
3417.19     68.552   131.337
3466.89     68.658   126.100
3517.32     68.785   120.662
3568.48     68.951   114.734
3620.39     69.059   108.290
3673.05     69.059   102.132
3726.47     69.059    96.226
3780.67     69.110    90.015
3835.67     69.128    83.153
3891.46     69.074    76.475
3948.06     69.026    70.456
4005.49     69.050    64.905
4063.75     69.193    59.371
4122.86     69.426    53.338
4182.82     69.540    46.486
4243.66     69.419    39.898
4305.39     69.249    35.111
4368.01     69.343    31.752
4431.55     69.719    27.365
4496.01     70.121    21.345
4561.40     70.352    14.640
4627.75     70.403     8.420
4695.06     70.432     3.117
4763.35     70.560    -1.718
4832.64     70.755    -6.953
4902.93     70.872   -12.423
4974.24     70.914   -17.260
5046.60     71.082   -21.411
5120.00     71.410   -26.124
5194.47     71.730   -32.021
5270.03     71.867   -38.776
5346.68     71.777   -45.045
5424.45     71.633   -50.013
5503.35     71.590   -54.467
5583.40     71.588   -59.401
5664.61     71.482   -64.736
5747.01     71.249   -69.634
5830.60     70.942   -73.659
5915.41     70.643   -76.721
6001.45     70.471   -79.271
6088.74     70.443   -82.309
6177.30     70.365   -86.389
6267.15     70.045   -90.263
6358.31     69.658   -92.401
6450.80     69.486   -93.297
6544.62     69.488   -94.780
6639.82     69.445   -96.760
6736.40     69.363   -98.517
6834.38     69.278   -99.972
6933.79     69.236  -101.221
7034.64     69.348  -102.506
7136.96     69.517  -104.817
7240.77     69.489  -107.564
7346.09     69.396  -108.809
7452.94     69.603  -109.621
7561.35     69.937  -112.289
7671.33     70.031  -116.095
7782.91     69.896  -119.038
7896.12     69.828  -120.930
8010.97     69.946  -123.324
8127.49     70.044  -127.080
8245.71     69.891  -130.947
8365.65     69.665  -133.291
8487.33     69.600  -135.603
8610.78     69.486  -139.180
8736.03     69.126  -142.110
8863.09     68.804  -143.161
8992.01     68.696  -144.576
9122.80     68.542  -147.114
9255.50     68.256  -149.119
9390.12     67.967  -150.276
9526.70     67.698  -151.576
9665.27     67.354  -153.436
9805.86     66.907  -154.089
9948.49     66.597  -153.145
10093.2     66.388  -151.599
10240.0     66.284  -149.270
10388.9     66.408  -146.740
10540.1     66.814  -145.132
10693.4     67.351  -145.597
10848.9     67.732  -147.030
11006.7     68.082  -148.618
11166.8     68.316  -150.823
11329.2     68.502  -152.669
11494.0     68.748  -154.885
11661.2     68.954  -157.682
11830.8     69.086  -160.795
12002.9     69.091  -163.804
12177.5     69.097  -166.749
12354.6     68.921  -170.050
12534.3     68.702  -172.113
12716.6     68.476  -173.903
12901.6     68.329  -174.553
13089.2     68.255  -175.633
13279.6     68.232  -176.480
13472.8     68.248  -178.146
13668.8     68.214  -179.962
13867.6     68.146   178.215
14069.3     68.043   176.650
14273.9     67.981   175.767
14481.5     68.012   174.319
14692.2     67.984   172.961
14905.9     67.998   171.167
15122.7     67.931   169.749
15342.7     67.945   168.575
15565.8     67.995   167.133
15792.2     68.096   165.609
16021.9     68.230   163.291
16255.0     68.285   160.877
16491.4     68.321   157.777
16731.3     68.231   155.069
16974.7     68.110   152.379
17221.6     67.874   150.244
17472.1     67.672   148.254
17726.2     67.410   146.986
17984.0     67.145   146.112
18245.6     66.805   145.777
18511.0     66.509   145.472
18780.2     66.222   145.778
19053.4     66.088   146.406
19330.5     66.119   147.430
19611.7     66.248   147.507
19897.0     66.406   146.846
20186.4     66.543   145.809
20480.0     66.714   145.011
20777.9     66.877   143.999
21080.1     66.975   142.448
21386.7     66.937   141.190
21697.8     66.841   141.208
22013.4     66.819   142.303
22333.6     66.812   143.695
22658.4     66.592   145.725
22988.0     65.498   149.489
23322.4     61.372   128.930
