Freq[Hz]     dBSPL  Phase[Deg]
Freq[Hz]     dBSPL  Phase[Deg]
5.00000    -14.422   -16.167
5.07273    -14.058   -16.249
5.14651    -13.632   -16.340
5.22137    -13.188   -16.435
5.29732    -12.743   -16.532
5.37437    -12.298   -16.629
5.45254    -11.854   -16.728
5.53185    -11.409   -16.829
5.61231    -10.965   -16.931
5.69394    -10.520   -17.035
5.77676    -10.075   -17.140
5.86079     -9.631   -17.247
5.94604     -9.186   -17.355
6.03252     -8.741   -17.465
6.12027     -8.296   -17.576
6.20929     -7.852   -17.689
6.29961     -7.407   -17.804
6.39124     -6.962   -17.921
6.48420     -6.517   -18.039
6.57851     -6.072   -18.159
6.67420     -5.627   -18.281
6.77128     -5.182   -18.404
6.86977     -4.737   -18.530
6.96969     -4.292   -18.657
7.07107     -3.847   -18.786
7.17392     -3.402   -18.917
7.27827     -2.957   -19.050
7.38413     -2.512   -19.185
7.49154     -2.066   -19.322
7.60050     -1.621   -19.461
7.71105     -1.176   -19.602
7.82321     -0.730   -19.746
7.93701     -0.285   -19.891
8.05245      0.160   -20.039
8.16958      0.606   -20.188
8.28841      1.051   -20.340
8.40896      1.497   -20.495
8.53128      1.943   -20.651
8.65537      2.388   -20.810
8.78126      2.834   -20.972
8.90899      3.280   -21.135
9.03857      3.726   -21.302
9.17004      4.172   -21.470
9.30342      4.618   -21.642
9.43874      5.064   -21.816
9.57603      5.510   -21.992
9.71532      5.956   -22.171
9.85663      6.402   -22.353
10.0000      6.848   -22.538
10.1455      7.295   -22.726
10.2930      7.741   -22.916
10.4427      8.188   -23.109
10.5946      8.634   -23.305
10.7487      9.081   -23.505
10.9051      9.528   -23.707
11.0637      9.975   -23.912
11.2246     10.421   -24.121
11.3879     10.868   -24.332
11.5535     11.316   -24.547
11.7216     11.763   -24.766
11.8921     12.210   -24.987
12.0650     12.657   -25.212
12.2405     13.105   -25.441
12.4186     13.552   -25.673
12.5992     14.000   -25.909
12.7825     14.448   -26.148
12.9684     14.896   -26.392
13.1570     15.344   -26.639
13.3484     15.792   -26.889
13.5426     16.240   -27.144
13.7395     16.689   -27.403
13.9394     17.137   -27.666
14.1421     17.586   -27.933
14.3478     18.035   -28.205
14.5565     18.484   -28.480
14.7683     18.933   -28.760
14.9831     19.382   -29.045
15.2010     19.832   -29.334
15.4221     20.281   -29.628
15.6464     20.731   -29.926
15.8740     21.181   -30.230
16.1049     21.631   -30.538
16.3392     22.081   -30.851
16.5768     22.532   -31.169
16.8179     22.982   -31.493
17.0626     23.433   -31.822
17.3107     23.884   -32.156
17.5625     24.335   -32.496
17.8180     24.787   -32.842
18.0771     25.238   -33.193
18.3401     25.690   -33.550
18.6068     26.142   -33.914
18.8775     26.595   -34.283
19.1521     27.047   -34.659
19.4306     27.500   -35.041
19.7133     27.953   -35.429
20.0000     28.406   -35.825
20.2909     28.873   -36.200
20.5860     29.415   -36.427
20.8855     30.048   -36.573
21.1893     30.683   -37.350
21.4975     31.222   -39.211
21.8102     31.632   -41.315
22.1274     31.921   -42.203
22.4492     32.149   -41.731
22.7758     32.475   -40.939
23.1071     32.970   -40.582
23.4432     33.554   -40.652
23.7841     34.123   -40.940
24.1301     34.649   -41.467
24.4811     35.136   -42.235
24.8372     35.594   -43.195
25.1984     36.040   -44.219
25.5649     36.489   -45.154
25.9368     36.954   -45.908
26.3141     37.454   -46.549
26.6968     37.988   -47.246
27.0851     38.518   -48.183
27.4791     39.009   -49.359
27.8788     39.462   -50.529
28.2843     39.906   -51.509
28.6957     40.350   -52.426
29.1131     40.800   -53.415
29.5365     41.260   -54.399
29.9661     41.743   -55.290
30.4020     42.257   -56.170
30.8442     42.789   -57.249
31.2929     43.295   -58.550
31.7480     43.748   -59.886
32.2098     44.187   -61.104
32.6783     44.655   -62.229
33.1536     45.146   -63.317
33.6359     45.634   -64.599
34.1251     46.146   -66.025
34.6215     46.708   -67.294
35.1250     47.238   -68.828
35.6359     47.663   -70.710
36.1543     48.008   -72.164
36.6802     48.409   -72.800
37.2137     48.912   -73.723
37.7550     49.469   -75.480
38.3041     50.005   -77.413
38.8613     50.503   -79.046
39.4265     50.974   -80.493
40.0000     51.437   -81.960
40.5818     51.909   -83.450
41.1721     52.395   -85.048
41.7710     52.892   -86.810
42.3785     53.382   -88.619
42.9949     53.853   -90.404
43.6203     54.324   -92.170
44.2548     54.824   -93.956
44.8985     55.332   -95.816
45.5515     55.818   -97.760
46.2141     56.292   -99.718
46.8863     56.780  -101.710
47.5683     57.271  -103.816
48.2602     57.730  -105.927
48.9621     58.172  -107.971
49.6743     58.636  -110.084
50.3968     59.129  -112.370
51.1299     59.615  -114.798
51.8736     60.082  -117.255
52.6281     60.531  -119.701
53.3936     60.977  -122.034
54.1702     61.427  -124.291
54.9581     61.881  -126.693
55.7575     62.324  -129.440
56.5685     62.752  -132.320
57.3914     63.170  -135.111
58.2261     63.586  -137.818
59.0730     63.994  -140.555
59.9323     64.387  -143.360
60.8040     64.775  -146.253
61.6884     65.162  -149.224
62.5857     65.549  -152.202
63.4960     65.920  -155.151
64.4196     66.271  -158.163
65.3566     66.601  -161.314
66.3073     66.914  -164.570
67.2717     67.218  -167.792
68.2502     67.517  -170.918
69.2429     67.809  -173.955
70.2501     68.095  -177.015
71.2719     68.378   179.808
72.3086     68.646   176.493
73.3603     68.881   173.114
74.4274     69.079   169.795
75.5099     69.268   166.629
76.6083     69.466   163.575
77.7226     69.666   160.514
78.8531     69.852   157.390
80.0000     70.013   154.252
81.1636     70.146   151.175
82.3442     70.260   148.140
83.5419     70.380   145.175
84.7570     70.504   142.294
85.9899     70.618   139.409
87.2406     70.715   136.477
88.5096     70.799   133.628
89.7970     70.873   130.914
91.1031     70.937   128.226
92.4282     70.994   125.540
93.7726     71.048   122.918
95.1366     71.099   120.393
96.5204     71.143   117.901
97.9243     71.174   115.425
99.3486     71.196   112.987
100.794     71.216   110.633
102.260     71.228   108.362
103.747     71.238   106.141
105.256     71.243   103.966
106.787     71.239   101.859
108.340     71.235    99.846
109.916     71.248    97.862
111.515     71.262    95.872
113.137     71.263    93.877
114.783     71.247    92.023
116.452     71.230    90.262
118.146     71.230    88.513
119.865     71.239    86.658
121.608     71.233    84.863
123.377     71.204    83.126
125.171     71.174    81.524
126.992     71.151    79.998
128.839     71.141    78.558
130.713     71.140    77.108
132.615     71.151    75.649
134.543     71.157    74.107
136.500     71.155    72.584
138.486     71.150    71.085
140.500     71.138    69.615
142.544     71.117    68.148
144.617     71.086    66.761
146.721     71.068    65.496
148.855     71.062    64.288
151.020     71.071    63.067
153.217     71.081    61.709
155.445     71.074    60.308
157.706     71.061    59.007
160.000     71.055    57.746
162.327     71.051    56.443
164.688     71.030    55.158
167.084     71.008    54.029
169.514     70.999    52.916
171.980     70.999    51.754
174.481     70.999    50.573
177.019     70.999    49.372
179.594     70.991    48.166
182.206     70.979    47.063
184.856     70.981    45.994
187.545     70.996    44.787
190.273     70.995    43.415
193.041     70.962    42.108
195.849     70.919    40.972
198.697     70.884    39.981
201.587     70.861    39.026
204.520     70.857    38.027
207.494     70.851    36.866
210.512     70.813    35.662
213.574     70.743    34.682
216.681     70.691    34.088
219.833     70.694    33.571
223.030     70.742    32.868
226.274     70.805    31.771
229.565     70.829    30.295
232.905     70.788    28.752
236.292     70.695    27.571
239.729     70.623    26.821
243.216     70.590    26.124
246.754     70.581    25.327
250.343     70.558    24.356
253.984     70.511    23.367
257.678     70.437    22.527
261.426     70.386    22.011
265.229     70.361    21.547
269.087     70.371    21.134
273.001     70.427    20.424
276.972     70.484    19.138
281.000     70.423    17.552
285.088     70.263    16.652
289.234     70.145    16.624
293.441     70.166    16.735
297.709     70.261    16.205
302.040     70.324    14.977
306.433     70.289    13.665
310.890     70.201    12.875
315.412     70.131    12.429
320.000     70.099    12.061
324.655     70.106    11.769
329.377     70.159    11.383
334.168     70.226    10.668
339.028     70.277     9.679
343.959     70.304     8.534
348.962     70.270     7.352
354.038     70.231     6.591
359.188     70.273     5.837
364.412     70.299     4.266
369.713     70.175     2.755
375.090     70.036     1.947
380.546     69.961     1.433
386.081     69.882     0.592
391.697     69.763     0.248
397.394     69.722     0.321
403.175     69.756    -0.174
409.039     69.715    -1.385
414.989     69.552    -2.092
421.025     69.424    -1.586
427.149     69.515    -0.887
433.362     69.702    -1.484
439.665     69.784    -2.966
446.060     69.690    -4.759
452.548     69.498    -5.802
459.131     69.326    -6.008
465.809     69.262    -5.714
472.584     69.215    -5.853
479.458     69.124    -5.756
486.432     69.138    -4.823
493.507     69.345    -4.422
500.686     69.523    -5.375
507.968     69.583    -6.533
515.357     69.661    -7.407
522.853     69.723    -8.902
530.458     69.631   -10.626
538.174     69.459   -11.574
546.002     69.336   -11.351
553.943     69.404   -11.098
562.001     69.490   -12.201
570.175     69.440   -14.050
578.469     69.199   -14.708
586.883     69.048   -14.067
595.419     69.051   -13.429
604.080     69.095   -13.394
612.866     69.147   -13.400
621.780     69.245   -14.005
630.824     69.316   -14.809
640.000     69.291   -15.555
649.309     69.245   -15.418
658.753     69.376   -15.028
668.335     69.628   -16.011
678.056     69.755   -18.317
687.919     69.732   -20.557
697.925     69.566   -22.086
708.077     69.339   -22.680
718.376     69.226   -22.085
728.825     69.415   -22.094
739.426     69.470   -24.439
750.181     69.169   -26.330
761.093     68.856   -25.824
772.163     68.800   -24.837
783.394     68.837   -24.218
794.789     68.944   -23.790
806.349     69.086   -24.221
818.078     69.156   -25.769
829.977     69.153   -26.659
842.050     69.204   -27.178
854.298     69.247   -27.953
866.724     69.257   -28.828
879.330     69.238   -29.450
892.120     69.203   -30.444
905.097     69.225   -31.263
918.262     69.270   -31.070
931.618     69.453   -30.844
945.169     69.630   -32.236
958.917     69.756   -34.213
972.864     69.802   -35.415
987.015     69.912   -36.639
1001.37     69.923   -38.462
1015.94     69.876   -40.234
1030.71     69.816   -41.651
1045.71     69.816   -43.052
1060.92     69.792   -44.231
1076.35     69.824   -45.413
1092.00     69.759   -47.366
1107.89     69.544   -49.480
1124.00     69.153   -50.720
1140.35     68.811   -50.187
1156.94     68.698   -48.912
1173.77     68.776   -47.527
1190.84     69.071   -47.234
1208.16     69.345   -48.895
1225.73     69.339   -51.423
1243.56     69.106   -52.762
1261.65     69.006   -52.879
1280.00     68.982   -53.224
1298.62     68.972   -52.732
1317.51     69.135   -51.987
1336.67     69.455   -52.202
1356.11     69.737   -54.139
1375.84     69.919   -56.245
1395.85     70.007   -58.221
1416.15     70.077   -59.967
1436.75     70.158   -61.852
1457.65     70.261   -64.164
1478.85     70.280   -66.891
1500.36     70.219   -69.305
1522.19     70.101   -71.595
1544.33     69.987   -73.532
1566.79     69.799   -75.467
1589.58     69.535   -76.558
1612.70     69.312   -76.475
1636.16     69.350   -75.991
1659.95     69.545   -77.159
1684.10     69.632   -79.009
1708.60     69.576   -80.015
1733.45     69.619   -80.454
1758.66     69.842   -82.492
1784.24     69.973   -85.278
1810.19     69.959   -87.728
1836.52     69.913   -89.094
1863.24     69.970   -91.265
1890.34     70.038   -94.718
1917.83     69.938   -98.224
1945.73     69.651  -100.921
1974.03     69.311  -102.604
2002.74     69.041  -103.756
2031.87     68.931  -104.789
2061.43     68.876  -107.512
2091.41     68.757  -110.707
2121.83     68.431  -113.358
2152.69     68.193  -114.711
2184.01     68.091  -115.620
2215.77     68.116  -117.044
2248.00     68.060  -119.718
2280.70     67.859  -123.465
2313.87     67.520  -127.146
2347.53     67.157  -130.403
2381.68     66.950  -132.578
2416.32     66.885  -134.183
2451.46     66.927  -136.336
2487.12     66.847  -139.249
2523.30     66.756  -142.185
2560.00     66.721  -145.305
2597.24     66.737  -149.421
2635.01     66.766  -153.264
2673.34     66.782  -157.358
2712.23     66.672  -161.543
2751.68     66.468  -165.059
2791.70     66.491  -167.071
2832.31     66.804  -170.184
2873.50     67.119  -175.221
2915.30     67.285   179.672
2957.70     67.423   175.820
3000.72     67.705   172.145
3044.37     68.022   167.140
3088.65     68.118   161.816
3133.58     67.994   158.408
3179.16     68.059   157.242
3225.40     68.463   156.213
3272.31     68.943   153.602
3319.91     69.246   150.463
3368.20     69.545   148.019
3417.19     69.899   145.421
3466.89     70.166   141.989
3517.32     70.207   138.928
3568.48     70.264   137.467
3620.39     70.414   136.119
3673.05     70.528   133.965
3726.47     70.504   132.161
3780.67     70.477   131.353
3835.67     70.436   130.667
3891.46     70.336   129.956
3948.06     70.256   128.998
4005.49     70.013   127.268
4063.75     69.473   126.308
4122.86     68.813   126.612
4182.82     68.154   127.175
4243.66     67.405   128.908
4305.39     66.656   132.921
4368.01     65.973   137.680
4431.55     65.339   142.130
4496.01     64.713   146.370
4561.40     63.870   150.017
4627.75     62.538   153.764
4695.06     60.572   159.449
4763.35     57.938   171.864
4832.64     55.334  -162.797
4902.93     55.147  -122.858
4974.24     58.411   -91.932
5046.60     62.098   -78.996
5120.00     64.833   -76.185
5194.47     66.559   -76.538
5270.03     67.551   -76.871
5346.68     68.088   -76.062
5424.45     68.421   -74.334
5503.35     68.545   -72.079
5583.40     68.454   -69.038
5664.61     68.118   -64.670
5747.01     67.632   -57.708
5830.60     67.318   -47.985
5915.41     67.388   -36.560
6001.45     67.803   -25.643
6088.74     68.305   -16.869
6177.30     68.616   -10.114
6267.15     68.695    -2.639
6358.31     68.846     6.122
6450.80     69.149    14.261
6544.62     69.334    21.376
6639.82     69.369    28.864
6736.40     69.397    36.792
6834.38     69.416    44.957
6933.79     69.229    53.263
7034.64     68.878    62.929
7136.96     68.553    73.653
7240.77     68.410    84.412
7346.09     68.307    94.322
7452.94     68.055   104.097
7561.35     67.629   115.011
7671.33     67.118   127.852
7782.91     66.591   142.526
7896.12     66.244   158.161
8010.97     66.159   173.553
8127.49     66.198  -171.097
8245.71     66.132  -155.803
8365.65     66.142  -139.286
8487.33     66.557  -122.572
8610.78     67.152  -107.222
8736.03     67.615   -93.401
8863.09     67.982   -80.097
8992.01     68.477   -67.475
9122.80     68.848   -56.882
9255.50     68.758   -47.033
9390.12     68.237   -35.900
9526.70     67.500   -22.331
9665.27     66.855    -6.029
9805.86     66.528    12.482
9948.49     66.659    31.247
10093.2     66.973    47.973
10240.0     67.146    61.908
10388.9     66.870    74.880
10540.1     66.166    89.881
10693.4     65.326   108.625
10848.9     64.819   130.666
11006.7     64.770   152.346
11166.8     64.847   172.672
11329.2     64.851  -168.452
11494.0     64.679  -148.901
11661.2     64.486  -128.499
11830.8     64.452  -107.105
12002.9     64.580   -87.073
12177.5     64.464   -68.569
12354.6     63.803   -49.620
12534.3     62.793   -25.135
12716.6     62.192     4.308
12901.6     62.652    35.561
13089.2     63.849    61.864
13279.6     64.829    83.390
13472.8     65.332   102.398
13668.8     65.491   122.384
13867.6     65.576   143.629
14069.3     65.688   164.950
14273.9     65.632  -175.061
14481.5     65.102  -154.384
14692.2     64.265  -129.662
14905.9     63.654  -101.614
15122.7     63.567   -73.310
15342.7     63.540   -46.459
15565.8     63.448   -19.530
15792.2     63.286     8.302
16021.9     63.299    36.454
16255.0     63.264    63.306
16491.4     62.973    90.020
16731.3     62.492   119.376
16974.7     62.122   151.128
17221.6     62.025  -176.661
17472.1     61.999  -144.866
17726.2     61.989  -112.698
17984.0     61.993   -80.639
18245.6     61.969   -48.828
18511.0     61.863   -16.339
18780.2     61.749    16.953
19053.4     61.735    50.035
19330.5     61.675    82.988
19611.7     61.449   116.414
19897.0     61.170   151.724
20186.4     61.116  -171.894
20480.0     61.258  -135.820
20777.9     61.387  -100.809
21080.1     61.374   -65.722
21386.7     61.118   -30.233
21697.8     60.654     6.531
22013.4     60.032    46.262
22333.6     59.422    88.893
22658.4     58.725   133.360
22988.0     57.408   178.594
23322.4     53.049  -160.581
