Freq[Hz]     dBSPL  Phase[Deg]
Freq[Hz]     dBSPL  Phase[Deg]
5.00000    -14.881   -15.245
5.07273    -14.518   -15.333
5.14651    -14.093   -15.434
5.22137    -13.648   -15.540
5.29732    -13.204   -15.647
5.37437    -12.760   -15.756
5.45254    -12.316   -15.867
5.53185    -11.872   -15.979
5.61231    -11.428   -16.093
5.69394    -10.984   -16.208
5.77676    -10.539   -16.325
5.86079    -10.095   -16.444
5.94604     -9.651   -16.565
6.03252     -9.207   -16.687
6.12027     -8.762   -16.811
6.20929     -8.318   -16.938
6.29961     -7.874   -17.065
6.39124     -7.429   -17.195
6.48420     -6.985   -17.327
6.57851     -6.540   -17.461
6.67420     -6.096   -17.596
6.77128     -5.651   -17.734
6.86977     -5.207   -17.874
6.96969     -4.762   -18.016
7.07107     -4.317   -18.160
7.17392     -3.873   -18.306
7.27827     -3.428   -18.454
7.38413     -2.983   -18.604
7.49154     -2.539   -18.757
7.60050     -2.094   -18.912
7.71105     -1.649   -19.069
7.82321     -1.204   -19.228
7.93701     -0.759   -19.390
8.05245     -0.314   -19.555
8.16958      0.131   -19.722
8.28841      0.576   -19.891
8.40896      1.021   -20.063
8.53128      1.466   -20.237
8.65537      1.912   -20.414
8.78126      2.357   -20.594
8.90899      2.802   -20.776
9.03857      3.248   -20.961
9.17004      3.693   -21.149
9.30342      4.139   -21.340
9.43874      4.584   -21.533
9.57603      5.030   -21.730
9.71532      5.476   -21.929
9.85663      5.921   -22.132
10.0000      6.367   -22.337
10.1455      6.813   -22.546
10.2930      7.259   -22.758
10.4427      7.705   -22.973
10.5946      8.151   -23.191
10.7487      8.597   -23.413
10.9051      9.044   -23.638
11.0637      9.490   -23.866
11.2246      9.937   -24.098
11.3879     10.383   -24.333
11.5535     10.830   -24.573
11.7216     11.277   -24.815
11.8921     11.723   -25.062
12.0650     12.170   -25.312
12.2405     12.617   -25.566
12.4186     13.065   -25.824
12.5992     13.512   -26.086
12.7825     13.959   -26.352
12.9684     14.407   -26.622
13.1570     14.854   -26.897
13.3484     15.302   -27.176
13.5426     15.750   -27.459
13.7395     16.198   -27.746
13.9394     16.646   -28.038
14.1421     17.094   -28.335
14.3478     17.542   -28.636
14.5565     17.991   -28.942
14.7683     18.440   -29.253
14.9831     18.888   -29.568
15.2010     19.337   -29.889
15.4221     19.787   -30.215
15.6464     20.236   -30.546
15.8740     20.685   -30.883
16.1049     21.135   -31.225
16.3392     21.585   -31.572
16.5768     22.035   -31.925
16.8179     22.485   -32.284
17.0626     22.935   -32.648
17.3107     23.386   -33.019
17.5625     23.837   -33.395
17.8180     24.288   -33.778
18.0771     24.739   -34.167
18.3401     25.190   -34.562
18.6068     25.642   -34.964
18.8775     26.094   -35.373
19.1521     26.546   -35.789
19.4306     26.998   -36.211
19.7133     27.451   -36.641
20.0000     27.904   -37.078
20.2909     28.370   -37.499
20.5860     28.912   -37.796
20.8855     29.545   -38.039
21.1893     30.181   -38.895
21.4975     30.722   -40.783
21.8102     31.132   -42.900
22.1274     31.420   -43.858
22.4492     31.646   -43.502
22.7758     31.971   -42.781
23.1071     32.470   -42.403
23.4432     33.052   -42.411
23.7841     33.614   -42.662
24.1301     34.135   -43.223
24.4811     34.629   -44.098
24.8372     35.094   -45.195
25.1984     35.537   -46.324
25.5649     35.977   -47.309
25.9368     36.439   -48.076
26.3141     36.941   -48.715
26.6968     37.481   -49.425
27.0851     38.017   -50.396
27.4791     38.512   -51.624
27.8788     38.969   -52.870
28.2843     39.411   -53.949
28.6957     39.848   -54.974
29.1131     40.291   -56.051
29.5365     40.747   -57.090
29.9661     41.229   -58.012
30.4020     41.744   -58.922
30.8442     42.278   -60.035
31.2929     42.785   -61.383
31.7480     43.235   -62.792
32.2098     43.672   -64.086
32.6783     44.139   -65.275
33.1536     44.627   -66.438
33.6359     45.114   -67.798
34.1251     45.633   -69.248
34.6215     46.204   -70.475
35.1250     46.742   -72.036
35.6359     47.171   -74.086
36.1543     47.513   -75.769
36.6802     47.899   -76.550
37.2137     48.387   -77.541
37.7550     48.942   -79.336
38.3041     49.486   -81.306
38.8613     49.988   -82.998
39.4265     50.453   -84.534
40.0000     50.905   -86.088
40.5818     51.368   -87.628
41.1721     51.852   -89.257
41.7710     52.353   -91.048
42.3785     52.848   -92.901
42.9949     53.322   -94.783
43.6203     53.795   -96.694
44.2548     54.289   -98.597
44.8985     54.790  -100.521
45.5515     55.271  -102.512
46.2141     55.743  -104.525
46.8863     56.234  -106.571
47.5683     56.731  -108.757
48.2602     57.191  -110.976
48.9621     57.626  -113.130
49.6743     58.082  -115.315
50.3968     58.572  -117.652
51.1299     59.061  -120.136
51.8736     59.534  -122.666
52.6281     59.986  -125.201
53.3936     60.431  -127.620
54.1702     60.879  -129.948
54.9581     61.339  -132.434
55.7575     61.790  -135.318
56.5685     62.219  -138.351
57.3914     62.632  -141.257
58.2261     63.042  -144.046
59.0730     63.446  -146.872
59.9323     63.838  -149.782
60.8040     64.227  -152.776
61.6884     64.621  -155.823
62.5857     65.014  -158.867
63.4960     65.390  -161.919
64.4196     65.742  -165.109
65.3566     66.069  -168.478
66.3073     66.376  -171.915
67.2717     66.675  -175.235
68.2502     66.968  -178.433
69.2429     67.252   178.414
70.2501     67.531   175.213
71.2719     67.810   171.945
72.3086     68.079   168.619
73.3603     68.316   165.220
74.4274     68.518   161.793
75.5099     68.715   158.461
76.6083     68.924   155.263
77.7226     69.126   152.087
78.8531     69.309   148.819
80.0000     69.469   145.498
81.1636     69.600   142.223
82.3442     69.708   139.006
83.5419     69.814   135.945
84.7570     69.927   133.041
85.9899     70.047   130.115
87.2406     70.166   127.070
88.5096     70.265   124.072
89.7970     70.339   121.180
91.1031     70.406   118.290
92.4282     70.470   115.426
93.7726     70.527   112.635
95.1366     70.576   109.922
96.5204     70.619   107.225
97.9243     70.651   104.571
99.3486     70.675   101.972
100.794     70.695    99.439
102.260     70.710    96.956
103.747     70.724    94.528
105.256     70.729    92.135
106.787     70.723    89.790
108.340     70.716    87.544
109.916     70.721    85.390
111.515     70.725    83.237
113.137     70.726    81.084
114.783     70.711    79.022
116.452     70.687    76.992
118.146     70.669    75.025
119.865     70.666    73.132
121.608     70.664    71.347
123.377     70.661    69.494
125.171     70.655    67.643
126.992     70.646    65.797
128.839     70.637    64.048
130.713     70.631    62.333
132.615     70.633    60.708
134.543     70.647    59.034
136.500     70.666    57.320
138.486     70.682    55.524
140.500     70.679    53.693
142.544     70.662    51.883
144.617     70.642    50.155
146.721     70.630    48.511
148.855     70.617    46.906
151.020     70.606    45.360
153.217     70.612    43.752
155.445     70.613    42.050
157.706     70.599    40.359
160.000     70.581    38.734
162.327     70.566    37.133
164.688     70.544    35.550
167.084     70.517    34.069
169.514     70.501    32.602
171.980     70.493    31.081
174.481     70.484    29.514
177.019     70.461    27.908
179.594     70.413    26.381
182.206     70.353    25.132
184.856     70.326    24.149
187.545     70.363    23.115
190.273     70.432    21.716
193.041     70.474    20.020
195.849     70.475    18.303
198.697     70.451    16.752
201.587     70.443    15.370
204.520     70.473    13.957
207.494     70.518    12.223
210.512     70.518    10.163
213.574     70.443     8.192
216.681     70.341     6.698
219.833     70.283     5.423
223.030     70.250     3.889
226.274     70.166     2.318
229.565     70.060     1.268
232.905     70.027     0.599
236.292     70.063    -0.390
239.729     70.097    -1.682
243.216     70.125    -3.102
246.754     70.153    -4.653
250.343     70.152    -6.504
253.984     70.092    -8.316
257.678     70.006    -9.855
261.426     69.920   -11.044
265.229     69.876   -12.060
269.087     69.885   -13.168
273.001     69.925   -14.751
276.972     69.905   -16.624
281.000     69.816   -18.375
285.088     69.701   -19.590
289.234     69.640   -20.493
293.441     69.642   -21.475
297.709     69.664   -22.772
302.040     69.660   -24.320
306.433     69.622   -25.949
310.890     69.552   -27.454
315.412     69.472   -28.576
320.000     69.461   -29.550
324.655     69.510   -30.794
329.377     69.543   -32.626
334.168     69.492   -34.564
339.028     69.407   -36.097
343.959     69.366   -37.121
348.962     69.425   -38.452
354.038     69.503   -40.574
359.188     69.473   -43.442
364.412     69.252   -46.038
369.713     68.967   -47.464
375.090     68.820   -48.026
380.546     68.799   -48.922
386.081     68.763   -50.587
391.697     68.614   -52.127
397.394     68.441   -53.113
403.175     68.393   -53.548
409.039     68.489   -54.608
414.989     68.553   -56.774
421.025     68.394   -59.595
427.149     68.061   -61.378
433.362     67.781   -61.543
439.665     67.720   -61.068
446.060     67.848   -61.249
452.548     68.005   -62.900
459.131     68.029   -65.559
465.809     67.795   -67.651
472.584     67.619   -67.969
479.458     67.667   -68.564
486.432     67.719   -69.865
493.507     67.678   -71.244
500.686     67.693   -72.399
507.968     67.810   -74.438
515.357     67.842   -76.768
522.853     67.794   -79.493
530.458     67.592   -82.126
538.174     67.311   -83.395
546.002     67.225   -84.025
553.943     67.190   -85.147
562.001     67.206   -85.850
570.175     67.322   -86.580
578.469     67.686   -89.478
586.883     67.705   -95.264
595.419     67.199  -100.515
604.080     66.526  -102.503
612.866     66.090  -101.434
621.780     65.982   -99.365
630.824     66.221   -99.151
640.000     66.549  -101.587
649.309     66.549  -105.566
658.753     66.277  -108.453
668.335     66.013  -109.848
678.056     65.845  -110.303
687.919     65.817  -111.114
697.925     66.011  -113.158
708.077     66.138  -116.615
718.376     66.139  -120.560
728.825     65.814  -124.729
739.426     65.378  -126.465
750.181     65.198  -127.105
761.093     65.268  -129.633
772.163     65.031  -134.286
783.394     64.450  -137.176
794.789     63.881  -137.302
806.349     63.653  -136.526
818.078     63.705  -136.449
829.977     63.657  -138.224
842.050     63.405  -137.787
854.298     63.635  -136.456
866.724     64.220  -138.833
879.330     64.376  -145.478
892.120     63.989  -148.970
905.097     63.700  -149.993
918.262     63.713  -152.525
931.618     63.571  -156.869
945.169     63.012  -158.542
958.917     62.516  -158.471
972.864     62.641  -157.929
987.015     63.113  -160.662
1001.37     63.112  -165.715
1015.94     62.471  -169.096
1030.71     61.827  -168.760
1045.71     61.758  -168.086
1060.92     62.184  -170.601
1076.35     62.430  -174.911
1092.00     62.089  -179.621
1107.89     61.331   177.289
1124.00     60.847   177.145
1140.35     61.080   174.721
1156.94     60.901   169.714
1173.77     60.367   169.845
1190.84     60.128   171.879
1208.16     60.052   170.837
1225.73     59.938   169.019
1243.56     60.159   168.231
1261.65     60.259   164.428
1280.00     59.860   160.531
1298.62     59.410   159.947
1317.51     59.734   159.425
1336.67     60.414   156.136
1356.11     60.736   149.656
1375.84     60.331   142.970
1395.85     59.690   139.616
1416.15     59.365   137.546
1436.75     59.167   135.064
1457.65     58.983   132.006
1478.85     58.669   127.610
1500.36     58.251   123.342
1522.19     57.210   121.506
1544.33     56.325   121.695
1566.79     56.229   126.471
1589.58     57.212   130.494
1612.70     57.994   129.690
1636.16     58.369   124.017
1659.95     58.678   118.639
1684.10     58.396   110.763
1708.60     57.635   104.718
1733.45     57.340   105.838
1758.66     58.074   107.248
1784.24     58.801   102.685
1810.19     58.561    95.152
1836.52     57.981    88.675
1863.24     57.286    87.436
1890.34     57.015    91.884
1917.83     57.318    95.214
1945.73     57.841    87.616
1974.03     58.133    78.743
2002.74     58.469    75.208
2031.87     58.905    69.485
2061.43     58.503    55.441
2091.41     57.164    41.126
2121.83     55.695    34.262
2152.69     54.579    33.326
2184.01     53.602    36.544
2215.77     53.467    39.564
2248.00     54.083    38.246
2280.70     54.058    28.104
2313.87     52.560    17.504
2347.53     50.772    14.932
2381.68     50.933    17.074
2416.32     51.956    15.956
2451.46     51.965     8.904
2487.12     51.059     6.319
2523.30     50.732     5.075
2560.00     50.602     1.295
2597.24     50.432    -5.449
2635.01     51.137    -7.332
2673.34     52.265    -5.817
2712.23     52.545   -13.073
2751.68     51.814   -25.147
2791.70     51.360   -29.198
2832.31     50.934   -24.358
2873.50     50.534   -20.886
2915.30     49.961   -23.999
2957.70     49.960   -31.023
3000.72     50.252   -35.594
3044.37     50.983   -39.027
3088.65     51.597   -43.056
3133.58     52.104   -53.260
3179.16     52.085   -69.580
3225.40     51.336   -83.935
3272.31     50.279   -89.309
3319.91     50.028   -90.716
3368.20     50.183   -94.621
3417.19     49.880  -100.080
3466.89     50.144  -105.611
3517.32     50.936  -110.048
3568.48     52.103  -116.492
3620.39     52.503  -125.572
3673.05     52.529  -137.132
3726.47     53.008  -144.401
3780.67     54.145  -151.318
3835.67     54.692  -162.483
3891.46     54.649  -176.421
3948.06     54.400   173.083
4005.49     54.324   166.895
4063.75     54.640   159.807
4122.86     55.003   149.203
4182.82     55.061   133.145
4243.66     54.613   118.960
4305.39     54.112   109.862
4368.01     53.712   103.826
4431.55     53.582    98.286
4496.01     54.043    92.147
4561.40     54.509    82.591
4627.75     54.729    71.563
4695.06     54.565    61.302
4763.35     54.352    52.969
4832.64     54.139    43.925
4902.93     53.566    35.693
4974.24     52.758    30.178
5046.60     52.191    29.848
5120.00     52.733    29.782
5194.47     53.748    23.699
5270.03     54.418    12.845
5346.68     54.426     0.491
5424.45     54.090   -10.769
5503.35     53.504   -20.022
5583.40     53.193   -27.689
5664.61     52.759   -35.009
5747.01     52.280   -41.501
5830.60     51.598   -48.059
5915.41     51.242   -55.124
6001.45     50.922   -62.167
6088.74     50.659   -67.411
6177.30     50.604   -72.405
6267.15     50.719   -77.803
6358.31     50.962   -85.671
6450.80     50.857   -93.349
6544.62     50.725  -102.318
6639.82     50.274  -109.927
6736.40     49.805  -119.832
6834.38     48.574  -130.558
6933.79     47.299  -136.928
7034.64     46.276  -133.904
7136.96     46.373  -132.683
7240.77     46.430  -135.444
7346.09     46.575  -140.302
7452.94     46.442  -142.475
7561.35     46.647  -149.420
7671.33     47.353  -156.666
7782.91     48.162  -165.289
7896.12     48.728  -177.187
8010.97     49.099   164.679
8127.49     48.978   146.321
8245.71     47.758   130.986
8365.65     45.552   110.308
8487.33     42.783    85.120
8610.78     41.504    92.350
8736.03     43.253   126.765
8863.09     46.031   155.756
8992.01     48.284   154.580
9122.80     50.073   142.888
9255.50     51.174   124.779
9390.12     51.284   105.455
9526.70     50.982    88.844
9665.27     50.885    74.508
9805.86     50.997    61.328
9948.49     51.217    50.512
10093.2     51.375    38.506
10240.0     51.166    23.984
10388.9     50.519     7.227
10540.1     49.366    -6.112
10693.4     47.763   -14.948
10848.9     45.750   -19.886
11006.7     44.326   -19.127
11166.8     44.099   -14.451
11329.2     45.568   -10.962
11494.0     47.605   -18.174
11661.2     48.858   -32.765
11830.8     49.237   -49.876
12002.9     48.983   -66.406
12177.5     48.173   -82.715
12354.6     46.891   -96.546
12534.3     45.969  -107.744
12716.6     45.666  -119.677
12901.6     45.316  -131.485
13089.2     44.626  -144.024
13279.6     42.856  -157.226
13472.8     40.094  -167.836
13668.8     36.879  -174.658
13867.6     35.196  -173.108
14069.3     36.622  -169.938
14273.9     39.241  -172.173
14481.5     41.238   168.901
14692.2     41.292   138.918
14905.9     39.909    99.991
15122.7     36.928    56.961
15342.7     34.075     2.011
15565.8     33.235   -70.792
15792.2     35.542  -141.493
16021.9     38.483   163.597
16255.0     40.135   122.319
16491.4     40.495    77.679
16731.3     39.449    32.634
16974.7     37.356   -20.840
17221.6     34.120   -87.349
17472.1     31.612  -157.733
17726.2     30.626   158.663
17984.0     33.767   134.023
18245.6     37.541   105.034
18511.0     39.922    62.761
18780.2     40.291    22.824
19053.4     39.263   -14.347
19330.5     37.229   -37.658
19611.7     35.901   -41.084
19897.0     36.694   -45.087
20186.4     38.534   -65.950
20480.0     40.013   -96.656
20777.9     41.040  -126.644
21080.1     41.658  -161.083
21386.7     42.449   159.303
21697.8     43.308   112.813
22013.4     42.978    58.686
22333.6     40.658     8.283
22658.4     36.630   -23.554
22988.0     33.069   -40.048
23322.4     28.580   -83.135
