Freq[Hz]     dBSPL  Phase[Deg]
5.00000     -0.054    19.487
5.07273      0.276    20.341
5.14651      0.507    21.023
5.22137      0.459    21.224
5.29732      0.411    21.426
5.37437      0.362    21.628
5.45254      0.314    21.830
5.53185      0.037    23.202
5.61231     -0.482    25.814
5.69394     -1.001    28.425
5.77676     -1.521    31.036
5.86079     -2.033    33.758
5.94604     -2.167    43.006
6.03252     -2.300    52.254
6.12027     -2.433    61.502
6.20929     -2.567    70.750
6.29961     -1.773    76.974
6.39124     -0.774    82.527
6.48420      0.225    88.081
6.57851      1.223    93.634
6.67420      1.937    94.428
6.77128      2.605    94.450
6.86977      3.272    94.472
6.96969      3.860    94.362
7.07107      3.846    93.254
7.17392      3.832    92.146
7.27827      3.818    91.037
7.38413      3.305    91.709
7.49154      2.405    93.757
7.60050      1.506    95.804
7.71105      0.697   100.484
7.82321      0.289   116.728
7.93701     -0.118   132.971
8.05245     -0.526   149.215
8.16958      1.371   157.084
8.28841      3.353   164.641
8.40896      5.336   172.197
8.53128      6.582   171.628
8.65537      7.733   170.011
8.78126      8.884   168.393
8.90899      9.063   165.281
9.03857      9.177   162.070
9.17004      9.109   159.294
9.30342      7.584   159.977
9.43874      6.059   160.661
9.57603      5.162   174.709
9.71532      5.227  -150.825
9.85663      5.291  -116.359
10.0000      8.503  -105.982
10.1455     12.592  -102.317
10.2930     16.204  -101.007
10.4427     18.484  -106.271
10.5946     20.764  -111.535
10.7487     22.408  -118.306
10.9051     23.925  -125.377
11.0637     25.215  -132.916
11.2246     26.265  -140.950
11.3879     27.239  -149.171
11.5535     27.934  -158.070
11.7216     28.623  -166.988
11.8921     29.011  -176.939
12.0650     29.398   173.110
12.2405     29.532   161.807
12.4186     29.634   150.330
12.5992     29.540   136.862
12.7825     29.403   122.952
12.9684     29.219   106.040
13.1570     29.023    88.427
13.3484     29.162    67.529
13.5426     29.355    46.097
13.7395     30.235    24.309
13.9394     31.186     2.855
14.1421     32.469   -15.951
14.3478     33.732   -33.823
14.5565     34.954   -49.685
14.7683     36.037   -64.505
14.9831     37.011   -78.521
15.2010     37.725   -91.638
15.4221     38.334  -104.488
15.6464     38.675  -116.836
15.8740     38.814  -128.970
16.1049     38.792  -140.933
16.3392     38.368  -152.628
16.5768     37.717  -164.214
16.8179     36.758  -175.656
17.0626     35.142   173.144
17.3107     32.926   162.146
17.5625     29.923   151.408
17.8180     23.230   142.270
18.0771     19.793  -164.366
18.3401     20.409   -64.732
18.6068     26.622   -72.785
18.8775     30.009   -81.152
19.1521     31.889   -89.146
19.4306     32.928   -96.250
19.7133     33.326  -101.497
20.0000     33.481  -104.696
20.2909     33.599  -106.154
20.5860     33.823  -106.371
20.8855     34.272  -106.309
21.1893     34.924  -107.744
21.4975     35.548  -110.839
21.8102     36.028  -114.916
22.1274     36.320  -119.072
22.4492     36.470  -122.256
22.7758     36.624  -123.628
23.1071     37.028  -123.167
23.4432     37.879  -122.365
23.7841     39.101  -123.589
24.1301     40.346  -127.415
24.4811     41.379  -133.010
24.8372     42.091  -139.105
25.1984     42.479  -144.299
25.5649     42.663  -147.310
25.9368     42.900  -147.541
26.3141     43.473  -145.939
26.6968     44.450  -144.721
27.0851     45.621  -145.495
27.4791     46.714  -148.264
27.8788     47.577  -151.938
28.2843     48.227  -155.415
28.6957     48.753  -158.117
29.1131     49.253  -160.019
29.5365     49.785  -161.471
29.9661     50.348  -162.832
30.4020     50.915  -164.234
30.8442     51.477  -165.639
31.2929     52.037  -167.067
31.7480     52.595  -168.611
32.2098     53.128  -170.286
32.6783     53.617  -171.919
33.1536     54.089  -173.334
33.6359     54.579  -174.585
34.1251     55.092  -175.910
34.6215     55.588  -177.409
35.1250     56.042  -178.851
35.6359     56.476  -179.878
36.1543     56.956   179.416
36.6802     57.498   178.597
37.2137     58.043   177.360
37.7550     58.529   175.978
38.3041     58.966   174.929
38.8613     59.425   174.239
39.4265     59.942   173.503
40.0000     60.464   172.393
40.5818     60.936   171.072
41.1721     61.364   169.916
41.7710     61.792   168.977
42.3785     62.232   168.108
42.9949     62.673   167.303
43.6203     63.122   166.706
44.2548     63.616   166.322
44.8985     64.162   165.909
45.5515     64.734   165.373
46.2141     65.316   164.805
46.8863     65.913   164.262
47.5683     66.527   163.680
48.2602     67.145   163.056
48.9621     67.768   162.453
49.6743     68.411   161.796
50.3968     69.073   160.895
51.1299     69.726   159.694
51.8736     70.359   158.316
52.6281     70.995   156.798
53.3936     71.644   154.975
54.1702     72.286   152.719
54.9581     72.898   150.111
55.7575     73.485   147.258
56.5685     74.056   144.088
57.3914     74.587   140.525
58.2261     75.048   136.683
59.0730     75.436   132.760
59.9323     75.763   128.835
60.8040     76.029   124.912
61.6884     76.227   121.086
62.5857     76.364   117.468
63.4960     76.446   114.117
64.4196     76.469   111.098
65.3566     76.438   108.628
66.3073     76.379   106.732
67.2717     76.291   105.263
68.2502     76.143   104.302
69.2429     75.972   104.023
70.2501     75.808   104.050
71.2719     75.610   104.262
72.3086     75.415   104.740
73.3603     75.229   105.113
74.4274     75.029   105.580
75.5099     74.874   106.208
76.6083     74.727   106.855
77.7226     74.590   108.224
78.8531     74.551   110.143
80.0000     74.528   112.200
81.1636     74.515   114.845
82.3442     74.556   117.395
83.5419     74.544   119.685
84.7570     74.522   122.013
85.9899     74.506   124.169
87.2406     74.495   126.432
88.5096     74.544   128.966
89.7970     74.654   131.558
91.1031     74.782   134.060
92.4282     74.860   136.588
93.7726     74.889   139.278
95.1366     74.862   142.406
96.5204     74.870   146.123
97.9243     74.965   150.168
99.3486     75.133   154.210
100.794     75.351   158.185
102.260     75.574   162.011
103.747     75.810   165.713
105.256     76.054   169.246
106.787     76.302   172.678
108.340     76.562   176.201
109.916     76.813   179.873
111.515     77.073  -176.092
113.137     77.379  -172.034
114.783     77.704  -168.193
116.452     78.031  -164.535
118.146     78.370  -160.793
119.865     78.726  -156.917
121.608     79.120  -153.132
123.377     79.528  -149.466
125.171     79.961  -146.168
126.992     80.396  -143.166
128.839     80.812  -140.326
130.713     81.193  -137.738
132.615     81.522  -135.241
134.543     81.837  -132.623
136.500     82.181  -130.047
138.486     82.486  -128.045
140.500     82.735  -126.053
142.544     82.916  -123.767
144.617     83.049  -121.618
146.721     83.201  -119.449
148.855     83.384  -117.619
151.020     83.428  -116.313
153.217     83.294  -114.858
155.445     83.040  -112.561
157.706     82.790  -110.314
160.000     82.323  -106.819
162.327     81.981  -101.743
164.688     81.739   -97.146
167.084     81.563   -92.029
169.514     81.326   -88.423
171.980     80.631   -84.291
174.481     79.848   -76.819
177.019     79.589   -66.580
179.594     79.850   -58.748
182.206     79.780   -53.114
184.856     79.534   -46.136
187.545     79.329   -39.227
190.273     79.139   -31.793
193.041     78.968   -24.686
195.849     78.771   -17.385
198.697     78.567    -9.419
201.587     78.333    -1.535
204.520     78.004     6.380
207.494     77.689    15.260
210.512     77.416    25.279
213.574     77.336    34.094
216.681     76.889    42.683
219.833     76.698    53.480
223.030     76.427    63.915
226.274     76.213    75.013
229.565     76.048    86.564
232.905     75.916    98.097
236.292     75.973   109.496
239.729     76.159   119.567
243.216     75.926   129.397
246.754     75.714   141.351
250.343     75.580   153.790
253.984     75.542   167.003
257.678     75.699   179.229
261.426     75.870  -169.252
265.229     75.689  -158.234
269.087     75.495  -146.310
273.001     75.260  -132.601
276.972     75.314  -118.958
281.000     75.327  -105.283
285.088     75.396   -91.003
289.234     75.573   -76.727
293.441     75.756   -63.849
297.709     75.828   -50.678
302.040     75.913   -38.206
306.433     75.871   -24.694
310.890     75.792    -9.969
315.412     76.000     4.269
320.000     76.022    17.707
324.655     75.701    30.631
329.377     75.624    47.559
334.168     75.788    63.718
339.028     75.909    79.239
343.959     76.087    93.969
348.962     75.988   107.729
354.038     75.794   122.452
359.188     75.578   139.934
364.412     75.893   155.784
369.713     75.614   169.890
375.090     75.091  -173.631
380.546     75.007  -155.280
386.081     74.663  -138.050
391.697     74.508  -118.189
397.394     74.538  -100.426
403.175     74.063   -82.688
409.039     74.026   -62.206
414.989     74.013   -44.744
421.025     73.488   -26.316
427.149     72.917    -7.318
433.362     72.304    15.105
439.665     72.295    38.064
446.060     71.885    59.564
452.548     71.570    83.392
459.131     71.623   105.528
465.809     71.052   129.344
472.584     71.128   154.287
479.458     70.821   177.092
486.432     70.578  -158.110
493.507     70.462  -131.307
500.686     70.445  -106.432
507.968     70.249   -79.866
515.357     70.235   -53.603
522.853     70.284   -26.920
530.458     70.318     0.012
538.174     70.428    26.590
546.002     70.440    52.760
553.943     70.475    79.664
562.001     70.517   107.331
570.175     70.551   135.344
578.469     70.625   163.930
586.883     70.669  -167.767
595.419     70.705  -139.438
604.080     70.728  -110.642
612.866     70.748   -81.276
621.780     70.756   -51.372
630.824     70.738   -20.866
640.000     70.707     9.574
649.309     70.656    40.108
658.753     70.577    71.138
668.335     70.492   103.529
678.056     70.382   135.971
687.919     70.247   169.116
697.925     70.110  -157.010
708.077     69.963  -122.973
718.376     69.809   -88.196
728.825     69.658   -52.574
739.426     69.512   -16.175
750.181     69.377    21.062
761.093     69.262    59.059
772.163     69.179    97.067
783.394     69.124   135.942
794.789     69.103   176.028
806.349     69.109  -143.941
818.078     69.144  -103.434
829.977     69.223   -62.406
842.050     69.308   -20.941
854.298     69.406    20.967
866.724     69.510    62.619
879.330     69.614   105.356
892.120     69.699   148.508
905.097     69.772  -167.835
918.262     69.820  -123.700
931.618     69.841   -79.008
945.169     69.837   -33.731
958.917     69.810    12.205
972.864     69.762    58.850
987.015     69.687   106.237
1001.37     69.606   155.000
1015.94     69.517  -155.441
1030.71     69.437  -105.677
1045.71     69.380   -54.477
1060.92     69.341    -1.963
1076.35     69.346    50.630
1092.00     69.386   103.847
1107.89     69.463   158.144
1124.00     69.575  -147.074
1140.35     69.707   -91.992
1156.94     69.854   -35.967
1173.77     69.997    20.360
1190.84     70.131    76.965
1208.16     70.239   133.943
1225.73     70.311  -168.123
1243.56     70.343  -109.145
1261.65     70.326   -49.711
1280.00     70.267    10.311
1298.62     70.154    70.950
1317.51     69.992   132.832
1336.67     69.783  -163.927
1356.11     69.540   -99.893
1375.84     69.256   -34.428
1395.85     68.943    32.427
1416.15     68.613   100.195
1436.75     68.265   168.728
1457.65     67.917  -121.281
1478.85     67.558   -49.930
1500.36     67.192    22.206
1522.19     66.807    95.756
1544.33     66.405   170.644
1566.79     65.979  -113.009
1589.58     65.529   -35.102
1612.70     65.074    43.730
1636.16     64.628   124.362
1659.95     64.206  -153.365
1684.10     63.853   -69.423
1708.60     63.586    16.100
1733.45     63.413   101.943
1758.66     63.338  -170.589
1784.24     63.294   -82.486
1810.19     63.248     5.458
1836.52     63.174    94.733
1863.24     62.980  -175.227
1890.34     62.677   -84.186
1917.83     62.248     8.170
1945.73     61.672   102.346
1974.03     60.973  -160.704
2002.74     60.200   -61.380
2031.87     59.441    40.851
2061.43     58.799   145.938
2091.41     58.394  -105.932
2121.83     58.323     4.449
2152.69     58.512   114.588
2184.01     58.912  -134.788
2215.77     59.382   -23.914
2248.00     59.834    86.721
2280.70     60.190  -162.477
2313.87     60.431   -50.718
2347.53     60.511    62.581
2381.68     60.446   177.040
2416.32     60.242   -66.364
2451.46     59.979    52.813
2487.12     59.691   174.500
2523.30     59.463   -61.194
2560.00     59.263    65.158
2597.24     59.131  -167.472
2635.01     59.000   -38.325
2673.34     58.839    92.958
2712.23     58.651  -133.397
2751.68     58.536     3.596
2791.70     58.563   142.881
2832.31     58.818   -76.310
2873.50     59.219    65.427
2915.30     59.688  -152.417
2957.70     60.109    -8.939
3000.72     60.437   135.338
3044.37     60.621   -79.103
3088.65     60.671    68.507
3133.58     60.551  -141.836
3179.16     60.279    10.703
3225.40     59.923   166.663
3272.31     59.564   -34.538
3319.91     59.292   127.271
3368.20     59.077   -68.539
3417.19     58.827    97.069
3466.89     58.492   -94.767
3517.32     58.091    77.669
3568.48     57.787  -107.223
3620.39     57.697    70.206
3673.05     57.672  -110.923
3726.47     57.390    68.889
3780.67     56.677  -108.608
3835.67     55.592    79.093
3891.46     54.622   -85.275
3948.06     54.266   114.976
4005.49     54.459   -44.533
4063.75     54.586   156.540
4122.86     54.424    -0.620
4182.82     54.074  -154.023
4243.66     53.776    57.452
4305.39     53.528   -88.346
4368.01     53.266   129.041
4431.55     52.979    -8.959
4496.01     52.935  -141.876
4561.40     53.358    87.757
4627.75     54.020   -42.282
4695.06     54.544  -170.944
4763.35     54.773    63.137
4832.64     54.931   -58.990
4902.93     55.231  -177.184
4974.24     55.606    66.855
5046.60     55.801   -47.899
5120.00     55.631  -160.251
5194.47     54.989    90.898
5270.03     53.684   -13.764
5346.68     51.510  -110.153
5424.45     48.957   171.118
5503.35     48.802   108.976
5583.40     51.230    38.744
5664.61     53.224   -39.811
5747.01     54.309  -117.127
5830.60     55.123   169.959
5915.41     55.985   101.441
6001.45     56.696    34.728
6088.74     56.985   -29.103
6177.30     56.994   -86.842
6267.15     56.933  -139.165
6358.31     56.736   172.663
6450.80     56.273   129.751
6544.62     55.747    93.852
6639.82     55.435    63.566
6736.40     55.062    37.724
6834.38     54.415    18.172
6933.79     53.815     7.177
7034.64     53.865     4.996
7136.96     55.053     3.555
7240.77     55.872    -0.438
7346.09     55.461     2.981
7452.94     55.411    20.158
7561.35     56.863    41.309
7671.33     58.581    60.425
7782.91     59.862    80.203
7896.12     60.687   103.904
8010.97     61.157   132.478
8127.49     61.225   166.111
8245.71     60.755  -153.588
8365.65     60.006  -105.680
8487.33     59.048   -50.489
8610.78     57.791    12.184
8736.03     56.195    81.785
8863.09     53.409   164.498
8992.01     51.662   -88.280
9122.80     53.050    25.239
9255.50     55.993   129.350
9390.12     57.888  -131.155
9526.70     58.943   -26.820
9665.27     59.369    82.207
9805.86     59.358  -159.703
9948.49     59.176   -35.514
10093.2     58.564    95.839
10240.0     57.586  -124.653
10388.9     56.212    24.750
10540.1     54.694  -178.028
10693.4     52.485    -8.991
10848.9     50.586   176.340
11006.7     50.019    14.256
11166.8     50.756  -146.541
11329.2     51.695    53.909
11494.0     51.999  -104.126
11661.2     51.667   106.707
11830.8     50.912   -34.718
12002.9     49.706  -166.083
12177.5     48.492    73.027
12354.6     47.191   -40.645
12534.3     45.412  -142.092
12716.6     43.459   125.583
12901.6     41.034    47.690
13089.2     39.755   -12.378
13279.6     39.133   -67.935
13472.8     40.055  -110.209
13668.8     42.119  -156.965
13867.6     42.814   155.117
14069.3     42.972   119.243
14273.9     42.929    94.326
14481.5     42.793    79.287
14692.2     41.741    75.468
14905.9     40.568    88.560
15122.7     40.501   116.517
15342.7     40.698   148.186
15565.8     39.762  -165.811
15792.2     39.765  -108.958
16021.9     39.893   -42.985
16255.0     38.139    28.828
16491.4     35.131   125.165
16731.3     34.603  -109.187
16974.7     36.397    16.821
17221.6     37.599   139.460
17472.1     36.168   -85.246
17726.2     36.523    71.553
17984.0     36.816  -136.032
18245.6     35.868    19.640
18511.0     33.244  -171.466
18780.2     30.920     1.640
19053.4     31.002  -167.437
19330.5     33.692    31.396
19611.7     33.809  -111.721
19897.0     31.786   141.909
20186.4     29.088  -156.093
20480.0     29.584     6.257
20777.9     28.602   -52.569
21080.1     27.643   -83.278
21386.7     26.151   -95.390
21697.8     27.371   -83.699
22013.4     29.544   -78.138
22333.6     28.011   -63.390
22658.4     27.695   -13.315
22988.0     28.916    51.700
23322.4     32.230   128.260
23661.6     33.967  -150.632
24005.8     34.377   -51.775
24355.0     34.347    65.839
24709.2     33.949  -173.087
25068.6     31.596   -25.825
25433.2     30.071   157.971
25803.2     30.305   -10.895
26178.5     29.079  -166.229
26559.3     27.168    74.686
26945.6     26.046   -30.390
27337.5     24.205  -122.923
27735.2     21.174  -126.401
28138.6     17.442    48.285
28547.9     17.076     1.572
28963.1     15.263   -53.258
29384.4     16.424   -37.586
29811.8     15.356   -35.844
30245.4     15.698   -75.369
30685.3     15.463  -108.040
31131.7     17.164  -105.649
31584.5     17.998   -64.077
32043.9     18.105    94.878
32510.0     18.883  -114.241
32982.8     18.255    71.875
33462.6     17.650   -70.525
33949.3     17.400   -98.221
34443.1     16.414    28.119
34944.1     18.200     3.492
35452.4     18.380   136.780
35968.0     18.315    15.817
36491.2     17.998    74.960
37022.0     18.864    67.086
37560.5     17.976   111.756
38106.8     17.750   111.655
38661.1     16.095   170.488
39223.4     17.358    90.691
39793.9     17.767    78.407
