Freq[Hz]     dBSPL  Phase[Deg]
5.00000    -11.035     8.664
5.07273    -10.710     9.293
5.14651    -10.484     9.743
5.22137    -10.536     9.695
5.29732    -10.588     9.647
5.37437    -10.639     9.598
5.45254    -10.691     9.550
5.53185    -10.971    10.661
5.61231    -11.491    12.999
5.69394    -12.012    15.337
5.77676    -12.532    17.675
5.86079    -13.046    20.123
5.94604    -13.178    29.078
6.03252    -13.311    38.032
6.12027    -13.443    46.986
6.20929    -13.575    55.940
6.29961    -12.778    61.856
6.39124    -11.776    67.099
6.48420    -10.773    72.341
6.57851     -9.770    77.583
6.67420     -9.050    78.055
6.77128     -8.375    77.753
6.86977     -7.701    77.450
6.96969     -7.106    77.015
7.07107     -7.110    75.573
7.17392     -7.115    74.131
7.27827     -7.119    72.689
7.38413     -7.621    73.025
7.49154     -8.508    74.733
7.60050     -9.395    76.442
7.71105    -10.191    80.783
7.82321    -10.584    96.685
7.93701    -10.977   112.588
8.05245    -11.370   128.490
8.16958     -9.456   136.019
8.28841     -7.455   143.236
8.40896     -5.455   150.452
8.53128     -4.190   149.545
8.65537     -3.021   147.591
8.78126     -1.852   145.636
8.90899     -1.654   142.190
9.03857     -1.520   138.645
9.17004     -1.569   135.536
9.30342     -3.074   135.891
9.43874     -4.579   136.245
9.57603     -5.455   149.965
9.71532     -5.371  -175.893
9.85663     -5.286  -141.753
10.0000     -2.055  -131.700
10.1455      2.052  -128.358
10.2930      5.683  -127.370
10.4427      7.980  -132.957
10.5946     10.278  -138.545
10.7487     11.938  -145.640
10.9051     13.472  -153.038
11.0637     14.777  -160.905
11.2246     15.841  -169.271
11.3879     16.828  -177.826
11.5535     17.534   172.932
11.7216     18.236   163.672
11.8921     18.632   153.365
12.0650     19.029   143.057
12.2405     19.170   131.381
12.4186     19.278   119.527
12.5992     19.190   105.664
12.7825     19.057    91.355
12.9684     18.875    74.021
13.1570     18.682    55.981
13.3484     18.822    34.628
13.5426     19.017    12.736
13.7395     19.898    -9.546
13.9394     20.849   -31.499
14.1421     22.132   -50.838
14.3478     23.395   -69.255
14.5565     24.618   -85.689
14.7683     25.702  -101.103
14.9831     26.679  -115.729
15.2010     27.397  -129.489
15.4221     28.012  -142.993
15.6464     28.361  -156.025
15.8740     28.510  -168.858
16.1049     28.499   178.466
16.3392     28.091   166.033
16.5768     27.458   153.700
16.8179     26.519   141.499
17.0626     24.929   129.529
17.3107     22.739   117.755
17.5625     19.766   106.236
17.8180     13.106    96.315
18.0771      9.703   148.896
18.3401     10.357  -112.252
18.6068     16.609  -121.083
18.8775     20.037  -130.223
19.1521     21.958  -138.986
19.4306     23.039  -146.855
19.7133     23.480  -152.861
20.0000     23.676  -156.817
20.2909     23.835  -159.031
20.5860     24.098  -160.005
20.8855     24.586  -160.704
21.1893     25.274  -162.910
21.4975     25.932  -166.789
21.8102     26.444  -171.665
22.1274     26.768  -176.640
22.4492     26.946   179.333
22.7758     27.128   177.090
23.1071     27.560   176.650
23.4432     28.439   176.518
23.7841     29.689   174.323
24.1301     30.963   169.491
24.4811     32.029   162.857
24.8372     32.776   155.694
25.1984     33.203   149.404
25.5649     33.431   145.276
25.9368     33.715   143.914
26.3141     34.340   144.374
26.6968     35.373   144.450
27.0851     36.604   142.537
27.4791     37.757   138.638
27.8788     38.683   133.848
28.2843     39.394   129.267
28.6957     39.981   125.473
29.1131     40.538   122.485
29.5365     41.123   119.948
29.9661     41.733   117.491
30.4020     42.341   114.973
30.8442     42.936   112.412
31.2929     43.525   109.780
31.7480     44.106   106.969
32.2098     44.659   103.956
32.6783     45.167   100.891
33.1536     45.660    97.955
33.6359     46.175    95.098
34.1251     46.720    92.081
34.6215     47.258    88.817
35.1250     47.765    85.559
35.6359     48.268    82.684
36.1543     48.827    80.123
36.6802     49.460    77.464
37.2137     50.107    74.423
37.7550     50.699    71.283
38.3041     51.244    68.533
38.8613     51.811    66.188
39.4265     52.430    63.838
40.0000     53.045    61.136
40.5818     53.602    58.223
41.1721     54.103    55.451
41.7710     54.596    52.852
42.3785     55.093    50.255
42.9949     55.586    47.643
43.6203     56.082    45.156
44.2548     56.623    42.790
44.8985     57.219    40.311
45.5515     57.845    37.635
46.2141     58.485    34.861
46.8863     59.145    32.056
47.5683     59.827    29.160
48.2602     60.516    26.173
48.9621     61.217    23.159
49.6743     61.943    20.044
50.3968     62.694    16.643
51.1299     63.443    12.912
51.8736     64.181     8.989
52.6281     64.929     4.935
53.3936     65.694     0.602
54.1702     66.452    -4.125
54.9581     67.172    -9.167
55.7575     67.858   -14.443
56.5685     68.512   -20.066
57.3914     69.110   -26.160
58.2261     69.629   -32.659
59.0730     70.070   -39.403
59.9323     70.456   -46.306
60.8040     70.796   -53.334
61.6884     71.085   -60.334
62.5857     71.332   -67.119
63.4960     71.533   -73.569
64.4196     71.674   -79.602
65.3566     71.743   -85.034
66.3073     71.765   -89.919
67.2717     71.733   -94.503
68.2502     71.629   -98.786
69.2429     71.505  -102.627
70.2501     71.407  -106.376
71.2719     71.306  -110.059
72.3086     71.240  -113.465
73.3603     71.205  -116.853
74.4274     71.157  -119.968
75.5099     71.134  -122.779
76.6083     71.085  -125.553
77.7226     71.009  -127.750
78.8531     71.015  -129.665
80.0000     71.039  -131.742
81.1636     71.100  -133.451
82.3442     71.251  -135.330
83.5419     71.377  -137.393
84.7570     71.498  -139.260
85.9899     71.611  -141.171
87.2406     71.697  -142.960
88.5096     71.813  -144.617
89.7970     71.975  -146.459
91.1031     72.159  -148.643
92.4282     72.315  -150.969
93.7726     72.443  -153.182
95.1366     72.526  -154.929
96.5204     72.639  -156.059
97.9243     72.829  -156.901
99.3486     73.081  -157.858
100.794     73.384  -159.020
102.260     73.698  -160.430
103.747     74.034  -161.998
105.256     74.373  -163.745
106.787     74.705  -165.641
108.340     75.037  -167.567
109.916     75.355  -169.512
111.515     75.689  -171.246
113.137     76.079  -173.049
114.783     76.493  -175.117
116.452     76.908  -177.416
118.146     77.330  -179.709
119.865     77.769   178.044
121.608     78.244   175.633
123.377     78.728   173.032
125.171     79.224   169.949
126.992     79.721   166.407
128.839     80.205   162.541
130.713     80.664   158.332
132.615     81.077   154.005
134.543     81.466   149.615
136.500     81.876   144.992
138.486     82.238   140.392
140.500     82.556   135.107
142.544     82.817   129.514
144.617     83.012   124.494
146.721     83.216   119.479
148.855     83.450   113.399
151.020     83.549   106.746
153.217     83.479   100.268
155.445     83.288    94.702
157.706     83.089    89.132
160.000     82.663    84.130
162.327     82.359    80.630
164.688     82.158    77.279
167.084     82.032    73.835
169.514     81.837    68.272
171.980     81.175    63.193
174.481     80.427    62.071
177.019     80.209    63.767
179.594     80.504    62.486
182.206     80.450    58.317
184.856     80.220    55.366
187.545     80.047    53.007
190.273     79.894    50.662
193.041     79.737    48.064
195.849     79.537    45.570
198.697     79.335    43.001
201.587     79.110    40.377
204.520     78.787    37.830
207.494     78.474    36.257
210.512     78.200    35.183
213.574     78.115    32.943
216.681     77.654    31.139
219.833     77.446    30.834
223.030     77.170    29.583
226.274     76.925    29.131
229.565     76.710    28.887
232.905     76.585    28.592
236.292     76.642    28.667
239.729     76.746    26.707
243.216     76.452    24.130
246.754     76.208    23.902
250.343     76.005    23.581
253.984     75.907    23.922
257.678     76.008    23.405
261.426     76.109    21.561
265.229     75.860    19.272
269.087     75.588    17.940
273.001     75.277    18.406
276.972     75.249    18.926
281.000     75.162    18.827
285.088     75.142    18.714
289.234     75.229    18.771
293.441     75.307    17.500
297.709     75.274    16.519
302.040     75.264    14.922
306.433     75.123    13.907
310.890     74.927    13.579
315.412     75.027    12.750
320.000     74.953    11.293
324.655     74.537     9.392
329.377     74.377    11.617
334.168     74.452    11.984
339.028     74.504    11.747
343.959     74.633    10.845
348.962     74.503     9.017
354.038     74.309     8.261
359.188     74.105     9.789
364.412     74.459     9.045
369.713     74.266     6.606
375.090     73.845     6.602
380.546     73.896     7.751
386.081     73.720     7.765
391.697     73.760     9.629
397.394     74.038     8.688
403.175     73.813     8.219
409.039     74.048     9.652
414.989     74.328     7.206
421.025     74.120     5.470
427.149     73.861     4.119
433.362     73.572     5.961
439.665     73.877     6.814
446.060     73.792     5.955
452.548     73.781     7.234
459.131     74.121     6.021
465.809     73.806     5.568
472.584     74.121     6.048
479.458     74.021     4.326
486.432     73.941     3.790
493.507     73.963     4.574
500.686     74.046     2.774
507.968     73.892     2.638
515.357     73.905     2.381
522.853     73.932     1.901
530.458     73.920     1.367
538.174     73.950     0.575
546.002     73.875    -0.425
553.943     73.809    -0.967
562.001     73.739    -1.280
570.175     73.689    -1.606
578.469     73.674    -1.760
586.883     73.665    -2.018
595.419     73.672    -2.154
604.080     73.695    -2.309
612.866     73.734    -2.506
621.780     73.786    -2.817
630.824     73.852    -3.267
640.000     73.919    -3.814
649.309     73.983    -4.489
658.753     74.038    -5.290
668.335     74.082    -6.243
678.056     74.111    -7.226
687.919     74.115    -8.296
697.925     74.100    -9.376
708.077     74.062   -10.388
718.376     74.004   -11.354
728.825     73.924   -12.176
739.426     73.834   -12.882
750.181     73.739   -13.362
761.093     73.647   -13.657
772.163     73.570   -13.744
783.394     73.517   -13.675
794.789     73.499   -13.505
806.349     73.519   -13.271
818.078     73.570   -13.144
829.977     73.667   -13.103
842.050     73.783   -13.282
854.298     73.914   -13.718
866.724     74.039   -14.399
879.330     74.155   -15.345
892.120     74.250   -16.517
905.097     74.309   -17.787
918.262     74.330   -19.124
931.618     74.310   -20.393
945.169     74.256   -21.539
958.917     74.174   -22.393
972.864     74.083   -22.935
987.015     73.999   -23.111
1001.37     73.947   -22.913
1015.94     73.958   -22.437
1030.71     74.045   -21.873
1045.71     74.227   -21.411
1060.92     74.486   -21.224
1076.35     74.804   -21.561
1092.00     75.153   -22.484
1107.89     75.508   -24.047
1124.00     75.845   -26.208
1140.35     76.135   -28.881
1156.94     76.372   -31.980
1173.77     76.540   -35.398
1190.84     76.631   -38.997
1208.16     76.649   -42.687
1225.73     76.592   -46.373
1243.56     76.464   -49.963
1261.65     76.273   -53.297
1280.00     76.031   -56.325
1298.62     75.762   -58.949
1317.51     75.471   -61.141
1336.67     75.190   -62.945
1356.11     74.944   -64.405
1375.84     74.747   -65.657
1395.85     74.609   -66.894
1416.15     74.521   -68.325
1436.75     74.471   -70.091
1457.65     74.419   -72.298
1478.85     74.340   -74.943
1500.36     74.201   -77.894
1522.19     73.981   -80.998
1544.33     73.667   -84.070
1566.79     73.267   -86.806
1589.58     72.801   -88.967
1612.70     72.319   -90.351
1636.16     71.872   -90.966
1659.95     71.517   -91.078
1684.10     71.289   -91.102
1708.60     71.159   -91.439
1733.45     71.071   -92.371
1758.66     70.968   -93.950
1784.24     70.797   -95.880
1810.19     70.555   -97.846
1836.52     70.250   -99.536
1863.24     69.925  -100.842
1890.34     69.615  -101.844
1917.83     69.347  -102.742
1945.73     69.092  -103.709
1974.03     68.814  -104.796
2002.74     68.489  -105.727
2031.87     68.139  -106.111
2061.43     67.807  -105.879
2091.41     67.581  -105.144
2121.83     67.483  -104.416
2152.69     67.470  -104.099
2184.01     67.467  -104.290
2215.77     67.455  -104.575
2248.00     67.468  -104.633
2280.70     67.587  -104.531
2313.87     67.852  -104.863
2347.53     68.193  -106.251
2381.68     68.491  -108.786
2416.32     68.674  -111.988
2451.46     68.750  -115.160
2487.12     68.818  -117.942
2523.30     68.971  -120.631
2560.00     69.198  -124.001
2597.24     69.402  -128.489
2635.01     69.457  -133.754
2673.34     69.308  -138.997
2712.23     69.026  -143.438
2751.68     68.740  -147.006
2791.70     68.531  -150.395
2832.31     68.322  -154.362
2873.50     67.978  -158.728
2915.30     67.445  -162.508
2957.70     66.836  -164.910
3000.72     66.345  -166.248
3044.37     65.990  -167.865
3088.65     65.591  -170.344
3133.58     65.013  -172.831
3179.16     64.293  -174.441
3225.40     63.521  -175.708
3272.31     62.526  -177.175
3319.91     60.961  -176.867
3368.20     58.959  -169.174
3417.19     57.951  -151.901
3466.89     58.671  -135.907
3517.32     59.854  -125.693
3568.48     61.205  -117.660
3620.39     62.889  -112.855
3673.05     64.469  -112.131
3726.47     65.720  -112.778
3780.67     66.945  -113.333
3835.67     68.272  -115.743
3891.46     69.369  -120.790
3948.06     70.027  -126.337
4005.49     70.465  -130.732
4063.75     70.878  -135.060
4122.86     71.029  -139.911
4182.82     70.824  -142.699
4243.66     70.828  -142.155
4305.39     71.330  -142.723
4368.01     71.616  -146.200
4431.55     71.409  -147.949
4496.01     71.439  -146.276
4561.40     71.912  -145.860
4627.75     72.245  -147.185
4695.06     72.519  -147.572
4763.35     72.955  -148.342
4832.64     73.300  -149.746
4902.93     73.714  -150.395
4974.24     74.281  -152.537
5046.60     74.550  -155.715
5120.00     74.737  -156.940
5194.47     75.185  -158.500
5270.03     75.477  -161.373
5346.68     75.657  -163.193
5424.45     75.901  -164.903
5503.35     76.148  -165.807
5583.40     76.755  -167.614
5664.61     77.018  -173.247
5747.01     76.585  -175.529
5830.60     76.749  -173.988
5915.41     77.134  -175.652
6001.45     77.393  -176.616
6088.74     77.858  -179.680
6177.30     77.711   176.691
6267.15     77.726   177.001
6358.31     78.050   174.964
6450.80     78.056   172.749
6544.62     78.119   171.284
6639.82     78.179   169.572
6736.40     78.099   167.259
6834.38     77.828   167.630
6933.79     78.095   168.105
7034.64     78.097   167.352
7136.96     78.522   167.779
7240.77     78.711   163.995
7346.09     78.659   162.879
7452.94     78.688   160.029
7561.35     78.403   159.001
7671.33     78.299   158.019
7782.91     78.010   157.726
7896.12     77.863   158.587
8010.97     77.827   159.254
8127.49     77.908   160.229
8245.71     77.997   158.906
8365.65     77.897   160.093
8487.33     78.128   157.573
8610.78     77.645   157.617
8736.03     77.617   155.495
8863.09     76.519   157.379
8992.01     76.524   161.619
9122.80     76.007   166.735
9255.50     76.883   171.571
9390.12     76.866   172.273
9526.70     77.504   173.827
9665.27     77.206   174.411
9805.86     77.697   178.183
9948.49     77.969   179.722
10093.2     78.759  -178.283
10240.0     79.284   179.336
10388.9     79.808   177.144
10540.1     79.682   172.148
10693.4     79.373   170.325
10848.9     78.590   170.503
11006.7     78.408   175.058
11166.8     78.623   178.921
11329.2     79.204  -179.391
11494.0     79.561   179.630
11661.2     80.005   177.947
11830.8     79.880   175.601
12002.9     79.690   173.516
12177.5     79.561   175.351
12354.6     79.548   174.676
12534.3     79.718   173.047
12716.6     79.426   172.120
12901.6     79.050   171.005
13089.2     78.844   171.091
13279.6     78.461   171.762
13472.8     78.063   172.176
13668.8     77.807   173.318
13867.6     77.464   175.636
14069.3     77.188   177.296
14273.9     77.022   178.135
14481.5     76.684  -179.646
14692.2     76.198  -175.473
14905.9     76.244  -171.290
15122.7     76.651  -169.764
15342.7     76.736  -169.154
15565.8     76.706  -168.135
15792.2     76.699  -169.367
16021.9     76.418  -169.449
16255.0     76.275  -167.995
16491.4     76.136  -168.038
16731.3     75.882  -168.949
16974.7     75.537  -170.725
17221.6     74.918  -172.142
17472.1     74.130  -171.960
17726.2     73.235  -170.990
17984.0     72.181  -167.984
18245.6     71.345  -162.771
18511.0     70.878  -156.687
18780.2     70.695  -152.373
19053.4     70.471  -148.810
19330.5     70.280  -146.217
19611.7     69.921  -144.181
19897.0     69.506  -141.133
20186.4     69.278  -138.628
20480.0     68.982  -138.420
20777.9     67.853  -137.288
21080.1     67.274  -129.262
21386.7     67.213  -125.180
21697.8     67.220  -122.667
22013.4     66.991  -122.699
22333.6     66.370  -121.949
22658.4     65.815  -119.190
22988.0     65.593  -117.256
23322.4     65.245  -117.959
23661.6     64.616  -119.226
24005.8     63.852  -120.150
24355.0     62.914  -121.842
24709.2     62.033  -123.400
25068.6     60.532  -127.991
25433.2     58.400  -126.615
25803.2     57.518  -120.934
26178.5     57.065  -127.559
26559.3     54.745  -139.597
26945.6     50.863  -142.995
27337.5     47.711  -132.853
27735.2     47.228  -127.339
28138.6     45.621  -145.169
28547.9     40.961  -148.792
28963.1     39.640  -139.287
29384.4     41.895  -146.827
29811.8     41.046  -162.432
30245.4     42.467  -159.267
30685.3     44.559  -171.517
31131.7     44.475  -177.939
31584.5     45.027  -175.139
32043.9     45.985  -176.007
32510.0     46.211  -173.922
32982.8     46.857  -172.345
33462.6     47.088  -171.480
33949.3     46.868  -168.591
34443.1     46.991  -161.749
34944.1     47.721  -158.713
35452.4     48.111  -160.956
35968.0     47.157  -160.515
36491.2     46.381  -158.066
37022.0     45.343  -152.417
37560.5     44.813  -142.830
38106.8     44.383  -138.076
38661.1     43.879  -129.872
39223.4     43.850  -124.549
39793.9     43.298  -122.982
