Freq[Hz]     dBSPL  Phase[Deg]
5.00000     -0.093    19.397
5.07273      0.240    20.246
5.14651      0.472    20.923
5.22137      0.425    21.121
5.29732      0.378    21.319
5.37437      0.332    21.516
5.45254      0.285    21.714
5.53185      0.010    23.084
5.61231     -0.507    25.693
5.69394     -1.024    28.303
5.77676     -1.542    30.912
5.86079     -2.052    33.632
5.94604     -2.183    42.881
6.03252     -2.314    52.130
6.12027     -2.445    61.379
6.20929     -2.576    70.627
6.29961     -1.780    76.855
6.39124     -0.779    82.413
6.48420      0.223    87.971
6.57851      1.224    93.528
6.67420      1.941    94.331
6.77128      2.611    94.361
6.86977      3.281    94.391
6.96969      3.872    94.290
7.07107      3.860    93.195
7.17392      3.849    92.099
7.27827      3.838    91.004
7.38413      3.327    91.691
7.49154      2.430    93.755
7.60050      1.533    95.820
7.71105      0.727   100.518
7.82321      0.321   116.783
7.93701     -0.085   133.047
8.05245     -0.490   149.312
8.16958      1.408   157.206
8.28841      3.393   164.787
8.40896      5.378   172.368
8.53128      6.625   171.827
8.65537      7.777   170.237
8.78126      8.929   168.648
8.90899      9.108   165.565
9.03857      9.222   162.383
9.17004      9.154   159.637
9.30342      7.629   160.351
9.43874      6.104   161.065
9.57603      5.207   175.144
9.71532      5.270  -150.359
9.85663      5.333  -115.863
10.0000      8.543  -105.457
10.1455     12.630  -101.763
10.2930     16.239  -100.424
10.4427     18.516  -105.662
10.5946     20.793  -110.900
10.7487     22.434  -117.648
10.9051     23.949  -124.697
11.0637     25.235  -132.216
11.2246     26.281  -140.233
11.3879     27.251  -148.437
11.5535     27.942  -157.325
11.7216     28.627  -166.231
11.8921     29.010  -176.176
12.0650     29.392   173.878
12.2405     29.522   162.575
12.4186     29.619   151.096
12.5992     29.522   137.622
12.7825     29.382   123.705
12.9684     29.193   106.781
13.1570     28.994    89.155
13.3484     29.130    68.239
13.5426     29.320    46.789
13.7395     30.199    24.979
13.9394     31.148     3.503
14.1421     32.429   -15.328
14.3478     33.692   -33.225
14.5565     34.915   -49.113
14.7683     35.998   -63.958
14.9831     36.974   -77.998
15.2010     37.690   -91.137
15.4221     38.302  -104.009
15.6464     38.646  -116.375
15.8740     38.789  -128.525
16.1049     38.772  -140.501
16.3392     38.352  -152.203
16.5768     37.706  -163.793
16.8179     36.752  -175.235
17.0626     35.141   173.570
17.3107     32.930   162.580
17.5625     29.932   151.854
17.8180     23.244   142.734
18.0771     19.811  -163.882
18.3401     20.431   -64.225
18.6068     26.647   -72.253
18.8775     30.037   -80.593
19.1521     31.919   -88.560
19.4306     32.960   -95.637
19.7133     33.360  -100.857
20.0000     33.516  -104.032
20.2909     33.634  -105.468
20.5860     33.859  -105.666
20.8855     34.309  -105.588
21.1893     34.961  -107.012
21.4975     35.585  -110.100
21.8102     36.066  -114.172
22.1274     36.360  -118.327
22.4492     36.512  -121.511
22.7758     36.670  -122.884
23.1071     37.077  -122.424
23.4432     37.936  -121.621
23.7841     39.163  -122.840
24.1301     40.415  -126.655
24.4811     41.457  -132.232
24.8372     42.176  -138.299
25.1984     42.574  -143.456
25.5649     42.767  -146.418
25.9368     43.013  -146.589
26.3141     43.594  -144.916
26.6968     44.578  -143.615
27.0851     45.756  -144.297
27.4791     46.852  -146.966
27.8788     47.717  -150.534
28.2843     48.366  -153.904
28.6957     48.888  -156.501
29.1131     49.383  -158.301
29.5365     49.909  -159.660
29.9661     50.462  -160.939
30.4020     51.018  -162.273
30.8442     51.568  -163.627
31.2929     52.117  -165.020
31.7480     52.663  -166.544
32.2098     53.185  -168.214
32.6783     53.666  -169.856
33.1536     54.131  -171.290
33.6359     54.617  -172.565
34.1251     55.126  -173.915
34.6215     55.621  -175.438
35.1250     56.076  -176.899
35.6359     56.512  -177.938
36.1543     56.995  -178.647
36.6802     57.540  -179.460
37.2137     58.089   179.315
37.7550     58.578   177.951
38.3041     59.017   176.924
38.8613     59.478   176.256
39.4265     59.997   175.541
40.0000     60.521   174.452
40.5818     60.996   173.149
41.1721     61.427   172.015
41.7710     61.859   171.101
42.3785     62.305   170.267
42.9949     62.751   169.507
43.6203     63.204   168.968
44.2548     63.700   168.654
44.8985     64.247   168.318
45.5515     64.816   167.859
46.2141     65.392   167.356
46.8863     65.980   166.859
47.5683     66.583   166.292
48.2602     67.192   165.648
48.9621     67.808   164.991
49.6743     68.450   164.254
50.3968     69.118   163.263
51.1299     69.784   161.981
51.8736     70.438   160.552
52.6281     71.100   159.034
53.3936     71.776   157.271
54.1702     72.444   155.136
54.9581     73.073   152.699
55.7575     73.671   150.040
56.5685     74.242   147.058
57.3914     74.766   143.649
58.2261     75.219   139.913
59.0730     75.600   136.047
59.9323     75.927   132.156
60.8040     76.201   128.276
61.6884     76.413   124.545
62.5857     76.564   121.098
63.4960     76.653   118.000
64.4196     76.667   115.284
65.3566     76.606   113.102
66.3073     76.500   111.409
67.2717     76.353   109.987
68.2502     76.149   108.894
69.2429     75.938   108.320
70.2501     75.761   107.954
71.2719     75.582   107.780
72.3086     75.434   107.989
73.3603     75.313   108.288
74.4274     75.174   108.906
75.5099     75.059   109.862
76.6083     74.923   110.912
77.7226     74.764   112.624
78.8531     74.686   114.726
80.0000     74.622   116.771
81.1636     74.584   119.256
82.3442     74.626   121.591
83.5419     74.638   123.724
84.7570     74.653   126.031
85.9899     74.672   128.313
87.2406     74.680   130.796
88.5096     74.729   133.553
89.7970     74.826   136.292
91.1031     74.940   138.841
92.4282     75.015   141.353
93.7726     75.052   144.035
95.1366     75.040   147.217
96.5204     75.058   151.052
97.9243     75.153   155.233
99.3486     75.315   159.368
100.794     75.529   163.374
102.260     75.756   167.205
103.747     76.006   170.950
105.256     76.262   174.599
106.787     76.513   178.190
108.340     76.765  -178.153
109.916     77.005  -174.421
111.515     77.259  -170.388
113.137     77.570  -166.334
114.783     77.904  -162.454
116.452     78.241  -158.718
118.146     78.584  -154.889
119.865     78.943  -150.938
121.608     79.342  -147.070
123.377     79.754  -143.300
125.171     80.183  -139.901
126.992     80.612  -136.848
128.839     81.029  -134.009
130.713     81.421  -131.409
132.615     81.767  -128.817
134.543     82.087  -126.036
136.500     82.424  -123.326
138.486     82.721  -121.287
140.500     82.972  -119.305
142.544     83.169  -116.975
144.617     83.314  -114.693
146.721     83.467  -112.360
148.855     83.640  -110.411
151.020     83.676  -109.069
153.217     83.544  -107.594
155.445     83.298  -105.231
157.706     83.051  -102.877
160.000     82.581   -99.278
162.327     82.233   -94.152
164.688     81.995   -89.532
167.084     81.829   -84.339
169.514     81.594   -80.588
171.980     80.889   -76.353
174.481     80.101   -68.874
177.019     79.852   -58.612
179.594     80.123   -50.635
182.206     80.042   -44.843
184.856     79.783   -37.868
187.545     79.592   -30.967
190.273     79.417   -23.354
193.041     79.232   -16.053
195.849     79.019    -8.729
198.697     78.820    -0.741
201.587     78.586     7.275
204.520     78.246    15.271
207.494     77.931    24.178
210.512     77.664    34.309
213.574     77.578    43.288
216.681     77.115    51.968
219.833     76.919    62.772
223.030     76.658    73.347
226.274     76.418    84.662
229.565     76.229    96.098
232.905     76.135   107.622
236.292     76.199   119.475
239.729     76.327   129.752
243.216     76.072   139.504
246.754     75.854   151.550
250.343     75.704   164.046
253.984     75.662   177.363
257.678     75.800  -170.241
261.426     75.949  -158.655
265.229     75.755  -147.547
269.087     75.546  -135.496
273.001     75.293  -121.646
276.972     75.320  -107.866
281.000     75.310   -94.136
285.088     75.369   -79.718
289.234     75.521   -65.237
293.441     75.675   -52.186
297.709     75.713   -38.872
302.040     75.774   -26.287
306.433     75.709   -12.550
310.890     75.587     2.419
315.412     75.754    16.818
320.000     75.737    30.476
324.655     75.371    43.582
329.377     75.256    60.725
334.168     75.366    77.129
339.028     75.440    92.844
343.959     75.571   107.834
348.962     75.421   121.856
354.038     75.181   136.855
359.188     74.912   154.682
364.412     75.170   170.885
369.713     74.840  -174.608
375.090     74.258  -157.635
380.546     74.105  -138.805
386.081     73.695  -121.060
391.697     73.470  -100.649
397.394     73.445   -82.319
403.175     72.913   -63.800
409.039     72.807   -42.563
414.989     72.725   -24.286
421.025     72.155    -5.033
427.149     71.534    14.918
433.362     70.900    38.355
439.665     70.845    62.392
446.060     70.439    85.015
452.548     70.129   109.990
459.131     70.207   133.353
465.809     69.668   158.342
472.584     69.814  -175.660
479.458     69.594  -151.826
486.432     69.456  -126.057
493.507     69.450   -98.403
500.686     69.559   -72.835
507.968     69.490   -45.846
515.357     69.608   -19.109
522.853     69.771     7.637
530.458     69.923    34.754
538.174     70.122    61.299
546.002     70.205    87.331
553.943     70.295   114.080
562.001     70.370   141.454
570.175     70.426   169.263
578.469     70.490  -162.493
586.883     70.519  -134.428
595.419     70.521  -106.295
604.080     70.494   -77.669
612.866     70.441   -48.368
621.780     70.359   -18.533
630.824     70.248    11.973
640.000     70.100    42.573
649.309     69.938    73.157
658.753     69.746   104.586
668.335     69.515   137.375
678.056     69.273   170.372
687.919     69.005  -155.745
697.925     68.722  -121.000
708.077     68.441   -86.033
718.376     68.171   -50.075
728.825     67.919   -13.214
739.426     67.686    24.559
750.181     67.510    63.165
761.093     67.364   102.538
772.163     67.283   141.922
783.394     67.250  -178.214
794.789     67.277  -137.208
806.349     67.333   -96.352
818.078     67.400   -55.294
829.977     67.489   -13.950
842.050     67.570    27.766
854.298     67.615    69.757
866.724     67.641   111.465
879.330     67.616   154.208
892.120     67.548  -162.527
905.097     67.417  -118.733
918.262     67.221   -74.303
931.618     66.964   -29.049
945.169     66.636    16.994
958.917     66.242    64.167
972.864     65.786   112.380
987.015     65.296   161.867
1001.37     64.795  -146.425
1015.94     64.334   -93.186
1030.71     63.961   -39.015
1045.71     63.751    17.091
1060.92     63.740    74.886
1076.35     63.932   132.356
1092.00     64.273  -170.322
1107.89     64.742  -112.758
1124.00     65.253   -55.681
1140.35     65.758     0.971
1156.94     66.211    58.017
1173.77     66.603   114.894
1190.84     66.907   171.939
1208.16     67.115  -130.771
1225.73     67.220   -72.461
1243.56     67.225   -13.076
1261.65     67.140    47.040
1280.00     66.955   107.975
1298.62     66.692   169.909
1317.51     66.347  -126.548
1336.67     65.970   -61.117
1356.11     65.575     5.645
1375.84     65.184    74.228
1395.85     64.870   144.631
1416.15     64.628  -144.027
1436.75     64.484   -72.129
1457.65     64.419     0.719
1478.85     64.388    74.328
1500.36     64.359   147.944
1522.19     64.258  -137.650
1544.33     64.088   -62.453
1566.79     63.809    13.873
1589.58     63.418    91.595
1612.70     62.903   170.413
1636.16     62.301  -108.949
1659.95     61.674   -26.108
1684.10     61.013    58.964
1708.60     60.427   146.155
1733.45     59.908  -125.585
1758.66     59.469   -35.182
1784.24     59.081    56.810
1810.19     58.671   149.797
1836.52     58.279  -114.709
1863.24     57.960   -16.794
1890.34     57.891    83.220
1917.83     58.143  -175.109
1945.73     58.683   -73.339
1974.03     59.398    28.454
2002.74     60.111   129.585
2031.87     60.735  -129.396
2061.43     61.178   -27.922
2091.41     61.495    75.313
2121.83     61.740  -179.507
2152.69     61.952   -73.190
2184.01     62.195    35.078
2215.77     62.479   144.996
2248.00     62.778  -104.378
2280.70     63.035     6.873
2313.87     63.200   119.682
2347.53     63.276  -125.734
2381.68     63.274    -9.584
2416.32     63.269   108.822
2451.46     63.303  -130.749
2487.12     63.410    -8.722
2523.30     63.530   114.685
2560.00     63.575  -120.714
2597.24     63.464     4.671
2635.01     63.175   132.172
2673.34     62.733   -97.466
2712.23     62.234    36.252
2751.68     61.848   174.021
2791.70     61.704   -45.844
2832.31     61.765    95.400
2873.50     61.873  -123.133
2915.30     61.838    18.961
2957.70     61.496   163.084
3000.72     60.839   -49.822
3044.37     59.989   101.805
3088.65     59.253  -100.264
3133.58     59.117    61.438
3179.16     59.611  -135.875
3225.40     60.303    25.432
3272.31     60.763  -174.424
3319.91     60.796   -12.954
3368.20     60.414   151.767
3417.19     59.754   -39.258
3466.89     59.086   135.143
3517.32     58.707   -44.745
3568.48     58.781   138.295
3620.39     59.311   -37.220
3673.05     60.116   147.925
3726.47     60.940   -27.433
3780.67     61.512   157.459
3835.67     61.711   -16.071
3891.46     61.579   174.128
3948.06     61.265     8.457
4005.49     60.998  -153.518
4063.75     60.833    48.271
4122.86     60.648  -108.459
4182.82     60.213    96.233
4243.66     59.329   -55.247
4305.39     57.889   158.659
4368.01     56.209    21.954
4431.55     55.304  -105.037
4496.01     55.562   130.191
4561.40     56.111     4.208
4627.75     56.598  -119.520
4695.06     57.383   120.625
4763.35     58.505     1.156
4832.64     59.539  -118.813
4902.93     60.247   123.268
4974.24     60.635     8.641
5046.60     60.740  -102.455
5120.00     60.658   151.644
5194.47     60.713    50.798
5270.03     60.928   -48.101
5346.68     60.868  -145.377
5424.45     60.277   122.826
5503.35     59.626    38.715
5583.40     59.517   -40.986
5664.61     59.423  -120.311
5747.01     58.596   162.680
5830.60     57.109    93.361
5915.41     55.734    34.304
6001.45     54.715   -19.393
6088.74     53.602   -68.589
6177.30     52.588  -108.509
6267.15     52.364  -141.773
6358.31     52.479  -174.026
6450.80     52.186   161.518
6544.62     53.663   146.666
6639.82     56.216   122.180
6736.40     57.182    95.160
6834.38     57.372    78.754
6933.79     58.402    68.727
7034.64     59.314    57.341
7136.96     59.455    49.541
7240.77     59.297    49.129
7346.09     58.895    55.222
7452.94     58.348    67.025
7561.35     57.674    85.160
7671.33     56.732   109.229
7782.91     55.339   140.907
7896.12     53.722  -176.094
8010.97     52.870  -121.671
8127.49     52.841   -61.431
8245.71     53.196     6.397
8365.65     55.086    74.613
8487.33     56.139   139.139
8610.78     56.711  -147.306
8736.03     57.512   -71.261
8863.09     57.583    10.201
8992.01     57.466    97.618
9122.80     56.573  -166.561
9255.50     56.054   -61.373
9390.12     55.146    50.594
9526.70     54.430   172.533
9665.27     53.547   -60.159
9805.86     52.702    79.095
9948.49     52.523  -131.589
10093.2     53.568    17.770
10240.0     53.412   165.951
10388.9     52.097   -36.274
10540.1     49.679   134.166
10693.4     47.491   -34.581
10848.9     47.403   171.260
11006.7     49.040    14.510
11166.8     50.295  -146.304
11329.2     50.258    54.684
11494.0     48.460   -95.878
11661.2     45.119   134.251
11830.8     42.990    36.571
12002.9     45.772   -63.799
12177.5     46.731  -177.751
12354.6     46.044    81.273
12534.3     45.507   -10.522
12716.6     43.651   -92.840
12901.6     41.449  -155.683
13089.2     40.986   155.084
13279.6     40.862   103.944
13472.8     38.844    64.398
13668.8     37.920    40.960
13867.6     36.977    20.308
14069.3     35.510    -0.583
14273.9     31.173   -20.883
14481.5     23.182   -80.538
14692.2     26.186  -132.847
14905.9     30.588  -117.912
15122.7     33.719   -74.795
15342.7     36.346   -17.648
15565.8     38.340    46.099
15792.2     40.109   117.350
16021.9     40.508  -162.159
16255.0     40.523   -61.091
16491.4     40.428    52.779
16731.3     40.105  -179.272
16974.7     41.043   -34.134
17221.6     42.415   109.708
17472.1     42.055   -96.559
17726.2     40.620    73.350
17984.0     38.211   -92.600
18245.6     37.941   125.835
18511.0     38.991   -13.149
18780.2     39.523  -146.207
19053.4     39.910    96.491
19330.5     39.422   -13.015
19611.7     37.760  -104.512
19897.0     36.760  -167.727
20186.4     37.605   131.934
20480.0     35.660    77.113
20777.9     31.479    61.360
21080.1     32.614    75.165
21386.7     33.744    84.240
21697.8     33.345   107.906
22013.4     34.133   147.128
22333.6     34.812  -160.902
22658.4     35.834   -87.999
22988.0     36.858   -17.400
23322.4     34.661    73.947
23661.6     32.947  -156.508
24005.8     33.938   -23.944
24355.0     31.820   117.744
24709.2     26.676   -52.804
25068.6     29.319   159.984
25433.2     30.424     5.890
25803.2     27.983  -140.124
26178.5     25.564   125.211
26559.3     26.011    38.596
26945.6     22.114   -10.807
27337.5     23.412   -53.751
27735.2     25.277   -78.389
28138.6     26.556   -97.200
28547.9     23.913  -103.117
28963.1     20.944   -98.273
29384.4     22.970   -14.632
29811.8     23.313    62.917
30245.4     23.345    48.578
30685.3     24.543   -47.030
31131.7     22.535    48.821
31584.5     21.122   -86.466
32043.9     20.963    63.418
32510.0     19.652    67.765
32982.8     19.403    88.608
33462.6     19.882   172.899
33949.3     21.563   105.715
34443.1     20.403    87.898
34944.1     20.137    -5.331
35452.4     17.544  -137.650
35968.0     17.696   -71.856
36491.2     17.024  -127.742
37022.0     18.617   100.085
37560.5     17.274    52.885
38106.8     17.412  -168.485
38661.1     17.602   -70.870
39223.4     17.190   -40.160
39793.9     17.154    56.015
