Freq[Hz]     dBSPL  Phase[Deg]
5.00000    -10.684     8.950
5.07273    -10.357     9.582
5.14651    -10.130    10.036
5.22137    -10.181     9.994
5.29732    -10.232     9.952
5.37437    -10.282     9.911
5.45254    -10.333     9.869
5.53185    -10.611    10.989
5.61231    -11.131    13.338
5.69394    -11.651    15.687
5.77676    -12.170    18.036
5.86079    -12.683    20.496
5.94604    -12.815    29.466
6.03252    -12.946    38.437
6.12027    -13.078    47.407
6.20929    -13.209    56.377
6.29961    -12.412    62.314
6.39124    -11.409    67.577
6.48420    -10.406    72.840
6.57851     -9.403    78.104
6.67420     -8.684    78.600
6.77128     -8.010    78.322
6.86977     -7.336    78.045
6.96969     -6.742    77.634
7.07107     -6.748    76.220
7.17392     -6.754    74.805
7.27827     -6.760    73.389
7.38413     -7.265    73.751
7.49154     -8.156    75.487
7.60050     -9.046    77.222
7.71105     -9.845    81.589
7.82321    -10.242    97.515
7.93701    -10.639   113.441
8.05245    -11.037   129.367
8.16958     -9.129   136.915
8.28841     -7.135   144.149
8.40896     -5.141   151.383
8.53128     -3.884   150.486
8.65537     -2.722   148.540
8.78126     -1.559   146.595
8.90899     -1.369   143.146
9.03857     -1.243   139.600
9.17004     -1.300   136.486
9.30342     -2.814   136.825
9.43874     -4.327   137.163
9.57603     -5.212   150.861
9.71532     -5.137  -175.030
9.85663     -5.061  -140.921
10.0000     -1.838  -130.912
10.1455      2.262  -127.618
10.2930      5.885  -126.683
10.4427      8.176  -132.333
10.5946     10.467  -137.984
10.7487     12.123  -145.156
10.9051     13.652  -152.631
11.0637     14.954  -160.582
11.2246     16.016  -169.038
11.3879     17.002  -177.683
11.5535     17.711   172.978
11.7216     18.414   163.621
11.8921     18.815   153.214
12.0650     19.216   142.807
12.2405     19.366   131.034
12.4186     19.484   119.085
12.5992     19.408   105.136
12.7825     19.288    90.742
12.9684     19.123    73.337
13.1570     18.947    55.231
13.3484     19.107    33.833
13.5426     19.321    11.901
13.7395     20.224   -10.392
13.9394     21.197   -32.351
14.1421     22.502   -51.663
14.3478     23.789   -70.040
14.5565     25.035   -86.408
14.7683     26.141  -101.733
14.9831     27.138  -116.253
15.2010     27.874  -129.875
15.4221     28.505  -143.230
15.6464     28.865  -156.086
15.8740     29.022  -168.732
16.1049     29.017   178.791
16.3392     28.607   166.570
16.5768     27.968   154.449
16.8179     27.018   142.461
17.0626     25.409   130.690
17.3107     23.196   119.103
17.5625     20.196   107.755
17.8180     13.501    97.964
18.0771     10.061   150.644
18.3401     10.673  -110.438
18.6068     16.879  -119.263
18.8775     20.260  -128.451
19.1521     22.136  -137.312
19.4306     23.172  -145.331
19.7133     23.571  -151.559
20.0000     23.732  -155.793
20.2909     23.860  -158.332
20.5860     24.102  -159.674
20.8855     24.577  -160.776
21.1893     25.266  -163.411
21.4975     25.937  -167.723
21.8102     26.474  -173.023
22.1274     26.836  -178.395
22.4492     27.063   177.224
22.7758     27.305   174.687
23.1071     27.803   174.027
23.4432     28.757   173.762
23.7841     30.085   171.538
24.1301     31.437   166.780
24.4811     32.578   160.319
24.8372     33.392   153.425
25.1984     33.877   147.489
25.5649     34.151   143.787
25.9368     34.466   142.901
26.3141     35.105   143.869
26.6968     36.135   144.457
27.0851     37.345   143.036
27.4791     38.460   139.580
27.8788     39.334   135.154
28.2843     39.980   130.839
28.6957     40.494   127.193
29.1131     40.975   124.225
29.5365     41.486   121.572
29.9661     42.028   118.870
30.4020     42.580   115.988
30.8442     43.140   112.961
31.2929     43.713   109.809
31.7480     44.302   106.467
32.2098     44.886   102.952
32.6783     45.448    99.473
33.1536     46.012    96.246
33.6359     46.608    93.242
34.1251     47.235    90.252
34.6215     47.852    87.182
35.1250     48.425    84.254
35.6359     48.972    81.828
36.1543     49.553    79.778
36.6802     50.184    77.643
37.2137     50.801    75.084
37.7550     51.346    72.342
38.3041     51.826    69.856
38.8613     52.318    67.633
39.4265     52.863    65.236
40.0000     53.412    62.341
40.5818     53.914    59.107
41.1721     54.381    55.926
41.7710     54.860    52.879
42.3785     55.367    49.844
42.9949     55.887    46.852
43.6203     56.426    44.072
44.2548     57.019    41.532
44.8985     57.668    38.998
45.5515     58.343    36.376
46.2141     59.025    33.744
46.8863     59.715    31.146
47.5683     60.414    28.496
48.2602     61.108    25.772
48.9621     61.801    23.017
49.6743     62.506    20.141
50.3968     63.224    16.941
51.1299     63.928    13.346
51.8736     64.610     9.466
52.6281     65.294     5.323
53.3936     65.995     0.740
54.1702     66.698    -4.414
54.9581     67.386   -10.045
55.7575     68.073   -16.013
56.5685     68.767   -22.331
57.3914     69.447   -29.009
58.2261     70.078   -35.870
59.0730     70.645   -42.660
59.9323     71.150   -49.286
60.8040     71.581   -55.761
61.6884     71.917   -62.027
62.5857     72.160   -68.054
63.4960     72.310   -73.880
64.4196     72.368   -79.534
65.3566     72.348   -84.897
66.3073     72.292   -89.976
67.2717     72.215   -94.928
68.2502     72.101   -99.608
69.2429     71.993  -103.758
70.2501     71.923  -107.666
71.2719     71.848  -111.369
72.3086     71.793  -114.726
73.3603     71.757  -118.078
74.4274     71.701  -121.228
75.5099     71.675  -124.145
76.6083     71.635  -127.041
77.7226     71.580  -129.305
78.8531     71.608  -131.186
80.0000     71.646  -133.139
81.1636     71.703  -134.697
82.3442     71.833  -136.482
83.5419     71.933  -138.561
84.7570     72.035  -140.550
85.9899     72.141  -142.630
87.2406     72.235  -144.563
88.5096     72.365  -146.292
89.7970     72.539  -148.133
91.1031     72.727  -150.283
92.4282     72.879  -152.587
93.7726     72.998  -154.812
95.1366     73.076  -156.601
96.5204     73.182  -157.788
97.9243     73.366  -158.697
99.3486     73.615  -159.736
100.794     73.919  -160.988
102.260     74.239  -162.474
103.747     74.581  -164.078
105.256     74.922  -165.822
106.787     75.245  -167.725
108.340     75.563  -169.725
109.916     75.874  -171.833
111.515     76.216  -173.759
113.137     76.630  -175.680
114.783     77.071  -177.727
116.452     77.499  -179.902
118.146     77.911   177.927
119.865     78.328   175.697
121.608     78.783   173.185
123.377     79.262   170.433
125.171     79.766   167.238
126.992     80.271   163.650
128.839     80.757   159.774
130.713     81.214   155.547
132.615     81.623   151.186
134.543     82.008   146.760
136.500     82.413   142.103
138.486     82.768   137.461
140.500     83.077   132.100
142.544     83.331   126.396
144.617     83.527   121.282
146.721     83.733   116.208
148.855     83.965   110.092
151.020     84.057   103.392
153.217     83.978    96.828
155.445     83.782    91.157
157.706     83.583    85.493
160.000     83.156    80.415
162.327     82.849    76.848
164.688     82.646    73.433
167.084     82.514    69.925
169.514     82.313    64.289
171.980     81.643    59.112
174.481     80.891    57.882
177.019     80.672    59.494
179.594     80.963    58.148
182.206     80.902    53.889
184.856     80.668    50.837
187.545     80.494    48.432
190.273     80.328    46.043
193.041     80.156    43.336
195.849     79.949    40.718
198.697     79.741    38.069
201.587     79.502    35.356
204.520     79.168    32.668
207.494     78.851    30.969
210.512     78.572    29.843
213.574     78.467    27.553
216.681     77.985    25.587
219.833     77.776    25.128
223.030     77.486    23.874
226.274     77.204    23.245
229.565     76.995    22.726
232.905     76.877    22.504
236.292     76.890    22.615
239.729     76.961    20.403
243.216     76.657    17.705
246.754     76.383    17.399
250.343     76.153    16.882
253.984     76.041    17.082
257.678     76.123    16.547
261.426     76.178    14.656
265.229     75.893    12.177
269.087     75.595    10.789
273.001     75.234    11.189
276.972     75.170    11.547
281.000     75.047    11.419
285.088     74.973    11.247
289.234     75.016    11.250
293.441     75.040    10.023
297.709     74.945     9.023
302.040     74.882     7.461
306.433     74.669     6.561
310.890     74.403     6.240
315.412     74.450     5.596
320.000     74.300     4.417
324.655     73.812     2.756
329.377     73.586     5.300
334.168     73.600     6.107
339.028     73.584     6.432
343.959     73.655     6.057
348.962     73.487     4.875
354.038     73.262     4.807
359.188     73.046     7.075
364.412     73.408     7.144
369.713     73.237     5.503
375.090     72.856     6.221
380.546     72.980     8.065
386.081     72.878     8.738
391.697     73.010    11.114
397.394     73.394    10.506
403.175     73.283    10.377
409.039     73.629    11.917
414.989     74.021     9.568
421.025     73.910     7.794
427.149     73.748     6.200
433.362     73.545     7.888
439.665     73.930     8.384
446.060     73.918     7.189
452.548     73.949     8.108
459.131     74.345     6.333
465.809     74.072     5.480
472.584     74.411     5.513
479.458     74.328     3.310
486.432     74.244     2.375
493.507     74.263     2.636
500.686     74.327     0.449
507.968     74.146    -0.036
515.357     74.111    -0.645
522.853     74.094    -1.442
530.458     74.030    -2.179
538.174     74.001    -3.052
546.002     73.860    -4.047
553.943     73.732    -4.513
562.001     73.612    -4.598
570.175     73.505    -4.558
578.469     73.459    -4.313
586.883     73.436    -4.075
595.419     73.452    -3.709
604.080     73.509    -3.305
612.866     73.606    -3.060
621.780     73.728    -2.949
630.824     73.882    -3.094
640.000     74.035    -3.558
649.309     74.204    -4.248
658.753     74.358    -5.203
668.335     74.497    -6.431
678.056     74.614    -7.835
687.919     74.689    -9.413
697.925     74.737   -11.107
708.077     74.737   -12.819
718.376     74.704   -14.489
728.825     74.627   -16.061
739.426     74.516   -17.454
750.181     74.363   -18.648
761.093     74.209   -19.553
772.163     74.045   -19.982
783.394     73.889   -20.265
794.789     73.775   -20.048
806.349     73.705   -19.615
818.078     73.691   -19.050
829.977     73.750   -18.538
842.050     73.863   -18.236
854.298     74.025   -18.276
866.724     74.213   -18.772
879.330     74.417   -19.584
892.120     74.583   -20.863
905.097     74.713   -22.486
918.262     74.795   -24.387
931.618     74.808   -26.327
945.169     74.748   -28.263
958.917     74.625   -29.998
972.864     74.445   -31.314
987.015     74.228   -32.115
1001.37     74.002   -32.225
1015.94     73.821   -31.593
1030.71     73.741   -30.371
1045.71     73.796   -28.794
1060.92     74.011   -27.321
1076.35     74.366   -26.391
1092.00     74.815   -26.329
1107.89     75.309   -27.247
1124.00     75.792   -29.140
1140.35     76.221   -31.860
1156.94     76.573   -35.280
1173.77     76.826   -39.167
1190.84     76.975   -43.335
1208.16     77.017   -47.580
1225.73     76.955   -51.778
1243.56     76.801   -55.794
1261.65     76.574   -59.391
1280.00     76.294   -62.487
1298.62     75.999   -65.046
1317.51     75.711   -67.136
1336.67     75.462   -68.869
1356.11     75.268   -70.438
1375.84     75.122   -72.119
1395.85     75.006   -74.073
1416.15     74.888   -76.352
1436.75     74.733   -78.954
1457.65     74.520   -81.722
1478.85     74.229   -84.486
1500.36     73.867   -87.009
1522.19     73.451   -89.076
1544.33     73.011   -90.566
1566.79     72.594   -91.493
1589.58     72.230   -92.017
1612.70     71.939   -92.445
1636.16     71.696   -93.019
1659.95     71.461   -93.894
1684.10     71.196   -94.921
1708.60     70.868   -95.818
1733.45     70.498   -96.204
1758.66     70.141   -95.868
1784.24     69.883   -94.836
1810.19     69.794   -93.687
1836.52     69.853   -93.203
1863.24     69.974   -93.956
1890.34     70.011   -95.975
1917.83     69.854   -98.792
1945.73     69.433  -101.403
1974.03     68.752  -102.756
2002.74     67.948  -101.490
2031.87     67.331   -97.212
2061.43     67.231   -91.206
2091.41     67.653   -86.387
2121.83     68.286   -84.383
2152.69     68.824   -84.519
2184.01     69.179   -85.310
2215.77     69.436   -85.553
2248.00     69.784   -85.132
2280.70     70.337   -85.112
2313.87     71.013   -86.774
2347.53     71.597   -90.443
2381.68     71.911   -95.344
2416.32     71.902  -100.084
2451.46     71.684  -103.161
2487.12     71.541  -103.823
2523.30     71.754  -103.254
2560.00     72.316  -104.202
2597.24     72.900  -107.904
2635.01     73.189  -113.543
2673.34     73.058  -119.138
2712.23     72.612  -122.572
2751.68     72.222  -122.783
2791.70     72.294  -121.423
2832.31     72.788  -121.828
2873.50     73.265  -125.120
2915.30     73.408  -129.743
2957.70     73.218  -133.298
3000.72     72.998  -134.351
3044.37     73.112  -134.041
3088.65     73.569  -135.076
3133.58     74.023  -138.574
3179.16     74.197  -143.372
3225.40     74.079  -147.528
3272.31     73.887  -149.912
3319.91     73.880  -151.175
3368.20     74.093  -153.115
3417.19     74.311  -156.724
3466.89     74.303  -161.364
3517.32     74.009  -165.519
3568.48     73.579  -167.863
3620.39     73.269  -168.453
3673.05     73.190  -168.785
3726.47     73.202  -169.864
3780.67     73.176  -171.244
3835.67     73.176  -172.392
3891.46     73.261  -173.929
3948.06     73.328  -176.460
4005.49     73.255  -179.555
4063.75     73.018   177.260
4122.86     72.558   174.412
4182.82     71.850   173.581
4243.66     71.326   176.283
4305.39     71.421   178.936
4368.01     71.520   178.194
4431.55     71.135   178.271
4496.01     71.043  -177.791
4561.40     71.596  -176.272
4627.75     71.773  -178.029
4695.06     71.683  -176.413
4763.35     72.322  -174.024
4832.64     73.018  -176.599
4902.93     73.186  -179.125
4974.24     73.571  -179.988
5046.60     74.025   176.070
5120.00     73.954   172.129
5194.47     74.022   170.626
5270.03     74.234   166.448
5346.68     73.839   162.207
5424.45     73.561   161.781
5503.35     73.677   159.132
5583.40     73.334   154.455
5664.61     72.575   151.228
5747.01     71.479   151.757
5830.60     71.146   157.426
5915.41     71.459   156.476
6001.45     70.780   154.425
6088.74     70.348   155.016
6177.30     68.945   152.139
6267.15     67.019   165.911
6358.31     67.672   179.195
6450.80     68.145  -170.606
6544.62     69.845  -163.645
6639.82     71.044  -163.536
6736.40     72.100  -165.159
6834.38     72.431  -167.600
6933.79     73.074  -168.016
7034.64     73.155  -171.875
7136.96     73.286  -170.037
7240.77     73.592  -172.532
7346.09     73.581  -170.986
7452.94     73.983  -172.489
7561.35     73.989  -172.020
7671.33     74.229  -173.880
7782.91     73.922  -172.821
7896.12     74.137  -171.086
8010.97     74.438  -168.953
8127.49     75.031  -169.033
8245.71     75.435  -170.167
8365.65     75.909  -171.521
8487.33     76.245  -176.575
8610.78     75.959  -178.997
8736.03     75.892   176.501
8863.09     74.972   176.621
8992.01     74.868   176.315
9122.80     73.989   179.220
9255.50     74.286  -177.281
9390.12     74.087  -174.811
9526.70     74.827  -172.590
9665.27     74.901  -174.170
9805.86     75.366  -174.946
9948.49     75.191  -177.788
10093.2     75.345  -179.034
10240.0     75.035   177.456
10388.9     74.783   175.745
10540.1     74.118   173.563
10693.4     73.708   173.930
10848.9     73.137   174.315
11006.7     72.962   174.900
11166.8     72.692   174.016
11329.2     72.319   172.593
11494.0     71.587   169.810
11661.2     70.709   169.257
11830.8     69.499   172.851
12002.9     69.132   175.175
12177.5     68.437   178.550
12354.6     67.915  -178.672
12534.3     67.582  -175.862
12716.6     67.355  -171.128
12901.6     67.280  -170.545
13089.2     67.091  -170.278
13279.6     66.859  -169.971
13472.8     66.565  -172.039
13668.8     66.264  -175.974
13867.6     65.204   177.783
14069.3     63.376   173.872
14273.9     61.639   172.615
14481.5     59.700   172.173
14692.2     57.241   173.517
14905.9     55.164   176.486
15122.7     53.057   178.746
15342.7     51.919   179.928
15565.8     52.244   157.227
15792.2     52.149   101.499
16021.9     52.428    48.236
16255.0     51.602    15.893
16491.4     49.013    16.695
16731.3     50.149    47.515
16974.7     55.137    52.998
17221.6     57.754    41.276
17472.1     58.282    32.364
17726.2     57.745    32.762
17984.0     58.140    38.459
18245.6     58.658    42.530
18511.0     59.348    45.685
18780.2     60.099    46.737
19053.4     60.293    45.618
19330.5     60.184    47.257
19611.7     60.313    49.053
19897.0     60.045    48.768
20186.4     59.372    51.938
20480.0     58.997    57.195
20777.9     58.617    60.673
21080.1     58.066    66.527
21386.7     57.400    72.971
21697.8     57.102    83.541
22013.4     57.420    91.816
22333.6     57.735    98.242
22658.4     58.084   105.019
22988.0     58.941   105.822
23322.4     58.686   104.137
23661.6     57.855   104.848
24005.8     57.244   108.206
24355.0     56.403   109.030
24709.2     54.668   112.880
25068.6     53.692   125.774
25433.2     53.574   129.581
25803.2     51.552   133.336
26178.5     50.316   148.862
26559.3     49.960   160.750
26945.6     48.754   170.336
27337.5     48.893  -171.856
27735.2     49.337  -165.960
28138.6     48.680  -164.395
28547.9     46.093  -158.020
28963.1     44.925  -129.411
29384.4     46.260  -111.681
29811.8     47.331  -104.762
30245.4     47.388  -102.148
30685.3     46.558   -97.031
31131.7     45.287   -88.511
31584.5     44.452   -74.264
32043.9     44.455   -60.995
32510.0     44.436   -52.360
32982.8     43.591   -47.137
33462.6     41.882   -36.246
33949.3     41.379   -12.742
34443.1     42.205    -0.887
34944.1     42.250     6.662
35452.4     41.030     9.392
35968.0     39.466    36.280
36491.2     40.687    50.808
37022.0     41.472    64.064
37560.5     41.956    68.975
38106.8     42.051    76.719
38661.1     41.740    83.652
39223.4     41.774    90.543
39793.9     41.335    95.805
