Freq[Hz]     dBSPL  Phase[Deg]
5.00000     -9.366     7.812
5.07273     -9.039     8.392
5.14651     -8.811     8.792
5.22137     -8.860     8.694
5.29732     -8.908     8.595
5.37437     -8.957     8.497
5.45254     -9.006     8.398
5.53185     -9.281     9.460
5.61231     -9.797    11.750
5.69394    -10.312    14.041
5.77676    -10.827    16.331
5.86079    -11.336    18.731
5.94604    -11.461    27.643
6.03252    -11.587    36.556
6.12027    -11.712    45.468
6.20929    -11.837    54.380
6.29961    -11.032    60.262
6.39124    -10.021    65.472
6.48420     -9.010    70.682
6.57851     -7.999    75.891
6.67420     -7.269    76.341
6.77128     -6.585    76.018
6.86977     -5.901    75.694
6.96969     -5.295    75.240
7.07107     -5.290    73.791
7.17392     -5.284    72.341
7.27827     -5.278    70.892
7.38413     -5.771    71.228
7.49154     -6.647    72.943
7.60050     -7.524    74.657
7.71105     -8.309    79.007
7.82321     -8.692    94.929
7.93701     -9.076   110.851
8.05245     -9.459   126.773
8.16958     -7.536   134.332
8.28841     -5.527   141.580
8.40896     -3.519   148.827
8.53128     -2.247   147.959
8.65537     -1.071   146.045
8.78126      0.106   144.130
8.90899      0.309   140.730
9.03857      0.449   137.232
9.17004      0.406   134.170
9.30342     -1.095   134.574
9.43874     -2.596   134.978
9.57603     -3.469   148.748
9.71532     -3.383  -177.061
9.85663     -3.298  -142.870
10.0000     -0.066  -132.770
10.1455      4.043  -129.381
10.2930      7.673  -128.348
10.4427      9.970  -133.894
10.5946     12.266  -139.440
10.7487     13.925  -146.501
10.9051     15.456  -153.864
11.0637     16.759  -161.704
11.2246     17.819  -170.046
11.3879     18.803  -178.579
11.5535     19.507   172.192
11.7216     20.206   162.946
11.8921     20.599   152.641
12.0650     20.992   142.336
12.2405     21.131   130.653
12.4186     21.238   118.792
12.5992     21.148   104.915
12.7825     21.014    90.591
12.9684     20.833    73.236
13.1570     20.641    55.175
13.3484     20.784    33.798
13.5426     20.981    11.883
13.7395     21.866   -10.420
13.9394     22.822   -32.394
14.1421     24.112   -51.748
14.3478     25.383   -70.177
14.5565     26.615   -86.614
14.7683     27.709  -102.023
14.9831     28.696  -116.637
15.2010     29.426  -130.369
15.4221     30.052  -143.839
15.6464     30.412  -156.817
15.8740     30.572  -169.586
16.1049     30.573   177.812
16.3392     30.173   165.475
16.5768     29.548   153.246
16.8179     28.616   141.162
17.0626     27.029   129.320
17.3107     24.841   117.682
17.5625     21.866   106.304
17.8180     15.202    96.529
18.0771     11.792   149.255
18.3401     12.435  -111.750
18.6068     18.673  -120.446
18.8775     22.084  -129.462
19.1521     23.986  -138.113
19.4306     25.044  -145.884
19.7133     25.460  -151.816
20.0000     25.630  -155.721
20.2909     25.761  -157.906
20.5860     25.997  -158.877
20.8855     26.456  -159.597
21.1893     27.118  -161.856
21.4975     27.749  -165.813
21.8102     28.238  -170.790
22.1274     28.540  -175.887
22.4492     28.700   179.946
22.7758     28.869   177.549
23.1071     29.289   176.946
23.4432     30.163   176.646
23.7841     31.411   174.284
24.1301     32.687   169.293
24.4811     33.758   162.510
24.8372     34.513   155.212
25.1984     34.950   148.804
25.5649     35.189   144.577
25.9368     35.485   143.130
26.3141     36.122   143.522
26.6968     37.167   143.539
27.0851     38.408   141.575
27.4791     39.572   137.628
27.8788     40.508   132.787
28.2843     41.230   128.149
28.6957     41.828   124.291
29.1131     42.399   121.232
29.5365     43.001   118.619
29.9661     43.631   116.088
30.4020     44.265   113.505
30.8442     44.893   110.901
31.2929     45.518   108.259
31.7480     46.139   105.485
32.2098     46.736   102.565
32.6783     47.289    99.672
33.1536     47.825    96.985
33.6359     48.377    94.454
34.1251     48.950    91.841
34.6215     49.503    89.043
35.1250     50.009    86.291
35.6359     50.491    83.933
36.1543     51.012    81.869
36.6802     51.590    79.651
37.2137     52.163    76.956
37.7550     52.671    74.049
38.3041     53.124    71.383
38.8613     53.598    68.982
39.4265     54.132    66.421
40.0000     54.673    63.382
40.5818     55.173    60.027
41.1721     55.639    56.749
41.7710     56.117    53.622
42.3785     56.624    50.522
42.9949     57.144    47.474
43.6203     57.682    44.645
44.2548     58.275    42.059
44.8985     58.924    39.483
45.5515     59.599    36.820
46.2141     60.281    34.149
46.8863     60.971    31.506
47.5683     61.671    28.802
48.2602     62.367    26.007
48.9621     63.064    23.164
49.6743     63.780    20.184
50.3968     64.516    16.877
51.1299     65.247    13.192
51.8736     65.967     9.268
52.6281     66.697     5.165
53.3936     67.450     0.736
54.1702     68.200    -4.129
54.9581     68.925    -9.336
55.7575     69.626   -14.779
56.5685     70.309   -20.535
57.3914     70.949   -26.687
58.2261     71.518   -33.127
59.0730     72.007   -39.662
59.9323     72.431   -46.211
60.8040     72.787   -52.771
61.6884     73.064   -59.252
62.5857     73.267   -65.560
63.4960     73.398   -71.677
64.4196     73.452   -77.583
65.3566     73.438   -83.126
66.3073     73.394   -88.316
67.2717     73.325   -93.324
68.2502     73.217   -98.035
69.2429     73.114  -102.217
70.2501     73.051  -106.158
71.2719     72.986  -109.881
72.3086     72.946  -113.221
73.3603     72.923  -116.499
74.4274     72.878  -119.515
75.5099     72.853  -122.259
76.6083     72.803  -124.981
77.7226     72.726  -127.108
78.8531     72.728  -128.917
80.0000     72.738  -130.871
81.1636     72.773  -132.492
82.3442     72.889  -134.378
83.5419     72.983  -136.572
84.7570     73.086  -138.670
85.9899     73.202  -140.832
87.2406     73.310  -142.808
88.5096     73.456  -144.529
89.7970     73.646  -146.315
91.1031     73.845  -148.376
92.4282     74.004  -150.579
93.7726     74.126  -152.707
95.1366     74.207  -154.400
96.5204     74.319  -155.472
97.9243     74.505  -156.227
99.3486     74.747  -157.086
100.794     75.032  -158.181
102.260     75.326  -159.594
103.747     75.648  -161.228
105.256     75.983  -163.055
106.787     76.321  -164.986
108.340     76.659  -166.876
109.916     76.977  -168.741
111.515     77.300  -170.408
113.137     77.677  -172.191
114.783     78.082  -174.276
116.452     78.496  -176.577
118.146     78.918  -178.816
119.865     79.347   179.027
121.608     79.803   176.678
123.377     80.264   174.059
125.171     80.748   170.897
126.992     81.243   167.286
128.839     81.730   163.424
130.713     82.188   159.279
132.615     82.589   155.017
134.543     82.963   150.653
136.500     83.361   146.039
138.486     83.713   141.458
140.500     84.016   136.194
142.544     84.259   130.589
144.617     84.444   125.533
146.721     84.642   120.508
148.855     84.868   114.471
151.020     84.952   107.874
153.217     84.860   101.406
155.445     84.650    95.808
157.706     84.439    90.214
160.000     84.001    85.222
162.327     83.677    81.735
164.688     83.460    78.366
167.084     83.318    74.896
169.514     83.109    69.337
171.980     82.427    64.283
174.481     81.656    63.156
177.019     81.418    64.821
179.594     81.695    63.516
182.206     81.620    59.343
184.856     81.368    56.392
187.545     81.174    54.048
190.273     80.990    51.716
193.041     80.798    49.078
195.849     80.572    46.500
198.697     80.350    43.892
201.587     80.098    41.301
204.520     79.736    38.760
207.494     79.383    37.113
210.512     79.076    35.962
213.574     78.955    33.693
216.681     78.455    31.810
219.833     78.218    31.416
223.030     77.902    30.203
226.274     77.593    29.654
229.565     77.349    29.193
232.905     77.200    28.992
236.292     77.182    29.144
239.729     77.217    26.959
243.216     76.880    24.292
246.754     76.568    24.011
250.343     76.299    23.511
253.984     76.144    23.750
257.678     76.179    23.185
261.426     76.195    21.297
265.229     75.855    18.853
269.087     75.503    17.419
273.001     75.089    17.791
276.972     74.968    18.100
281.000     74.790    17.932
285.088     74.646    17.781
289.234     74.605    17.724
293.441     74.554    16.368
297.709     74.380    15.345
302.040     74.219    13.679
306.433     73.926    12.627
310.890     73.554    12.430
315.412     73.455    11.688
320.000     73.187    10.351
324.655     72.570     8.668
329.377     72.207    11.239
334.168     72.051    12.129
339.028     71.872    12.573
343.959     71.759    12.470
348.962     71.415    11.632
354.038     70.993    12.066
359.188     70.599    14.894
364.412     70.766    15.826
369.713     70.416    15.024
375.090     69.883    16.733
380.546     69.855    19.656
386.081     69.640    21.320
391.697     69.673    24.784
397.394     69.968    25.187
403.175     69.798    25.852
409.039     70.079    28.210
414.989     70.420    26.470
421.025     70.256    25.231
427.149     70.033    24.085
433.362     69.761    26.064
439.665     70.066    26.768
446.060     69.959    25.744
452.548     69.888    26.724
459.131     70.143    25.002
465.809     69.716    24.040
472.584     69.885    23.891
479.458     69.604    21.467
486.432     69.328    20.251
493.507     69.084    20.367
500.686     68.855    17.758
507.968     68.359    16.901
515.357     67.978    16.015
522.853     67.542    14.940
530.458     67.002    14.017
538.174     66.442    13.021
546.002     65.711    12.165
553.943     64.918    12.182
562.001     64.037    13.003
570.175     63.132    14.722
578.469     62.214    17.531
586.883     61.337    21.268
595.419     60.565    26.115
604.080     59.924    31.858
612.866     59.481    37.713
621.780     59.232    43.670
630.824     59.080    48.957
640.000     58.979    53.085
649.309     58.844    56.279
658.753     58.625    58.739
668.335     58.256    60.985
678.056     57.651    63.044
687.919     56.778    65.619
697.925     55.586    69.653
708.077     54.075    76.846
718.376     52.285    89.906
728.825     51.110   112.288
739.426     51.840   138.774
750.181     54.109   158.189
761.093     56.712   168.650
772.163     58.983   173.540
783.394     60.918   175.611
794.789     62.569   176.267
806.349     63.948   175.680
818.078     65.129   174.620
829.977     66.159   173.214
842.050     67.041   171.552
854.298     67.811   169.797
866.724     68.467   168.083
879.330     69.034   166.304
892.120     69.531   164.587
905.097     69.944   163.008
918.262     70.283   161.486
931.618     70.568   160.168
945.169     70.803   159.029
958.917     70.987   158.256
972.864     71.130   157.784
987.015     71.260   157.658
1001.37     71.384   157.953
1015.94     71.535   158.601
1030.71     71.731   159.545
1045.71     71.991   160.597
1060.92     72.330   161.621
1076.35     72.724   162.278
1092.00     73.164   162.488
1107.89     73.623   162.051
1124.00     74.068   161.008
1140.35     74.464   159.401
1156.94     74.791   157.249
1173.77     75.025   154.724
1190.84     75.161   152.013
1208.16     75.189   149.272
1225.73     75.104   146.701
1243.56     74.920   144.427
1261.65     74.660   142.677
1280.00     74.353   141.564
1298.62     74.038   141.169
1317.51     73.763   141.282
1336.67     73.552   141.757
1356.11     73.422   142.189
1375.84     73.340   142.266
1395.85     73.262   141.826
1416.15     73.140   140.838
1436.75     72.928   139.434
1457.65     72.601   137.963
1478.85     72.148   136.713
1500.36     71.583   136.045
1522.19     70.952   136.123
1544.33     70.318   137.087
1566.79     69.726   138.669
1589.58     69.202   140.481
1612.70     68.714   142.049
1636.16     68.179   143.212
1659.95     67.522   144.343
1684.10     66.668   146.065
1708.60     65.661   149.376
1733.45     64.671   155.317
1758.66     63.971   163.962
1784.24     63.858   173.185
1810.19     64.250  -179.924
1836.52     64.778  -176.542
1863.24     65.114  -176.324
1890.34     65.077  -178.264
1917.83     64.577   178.852
1945.73     63.491   176.111
1974.03     61.739   174.990
2002.74     59.209   178.583
2031.87     56.308  -167.601
2061.43     54.801  -140.469
2091.41     55.846  -116.668
2121.83     57.329  -104.245
2152.69     58.084   -96.016
2184.01     58.434   -85.185
2215.77     59.305   -70.659
2248.00     61.216   -58.420
2280.70     63.473   -52.964
2313.87     65.391   -53.151
2347.53     66.753   -55.962
2381.68     67.595   -59.332
2416.32     68.068   -61.864
2451.46     68.400   -63.071
2487.12     68.789   -63.526
2523.30     69.281   -64.313
2560.00     69.765   -66.313
2597.24     70.109   -69.476
2635.01     70.238   -73.166
2673.34     70.158   -76.735
2712.23     69.934   -79.689
2751.68     69.662   -81.917
2791.70     69.451   -83.629
2832.31     69.367   -85.634
2873.50     69.390   -88.924
2915.30     69.378   -94.176
2957.70     69.161  -101.173
3000.72     68.655  -108.781
3044.37     67.930  -115.612
3088.65     67.288  -121.090
3133.58     66.986  -126.509
3179.16     66.961  -133.871
3225.40     66.904  -143.184
3272.31     66.674  -152.310
3319.91     66.487  -159.153
3368.20     66.708  -164.349
3417.19     67.290  -170.541
3466.89     67.761  -178.271
3517.32     67.858   174.866
3568.48     67.814   171.535
3620.39     68.121   170.705
3673.05     68.751   168.799
3726.47     69.226   165.196
3780.67     69.354   162.075
3835.67     69.341   160.907
3891.46     69.372   161.162
3948.06     69.474   162.263
4005.49     69.751   163.817
4063.75     70.136   164.055
4122.86     70.247   162.981
4182.82     70.027   164.056
4243.66     70.184   167.996
4305.39     70.865   169.184
4368.01     71.202   166.393
4431.55     70.968   164.590
4496.01     70.843   165.025
4561.40     70.847   163.171
4627.75     70.207   160.199
4695.06     69.178   162.178
4763.35     68.786   166.909
4832.64     68.507   168.845
4902.93     67.914   172.981
4974.24     67.918   179.390
5046.60     68.252  -177.050
5120.00     68.640  -173.875
5194.47     69.420  -173.415
5270.03     69.832  -177.046
5346.68     69.816  -179.772
5424.45     69.881   177.753
5503.35     69.786   174.306
5583.40     69.529   170.290
5664.61     68.426   166.334
5747.01     67.135   176.260
5830.60     68.861  -175.314
5915.41     69.750   176.360
6001.45     69.118   174.432
6088.74     69.245   175.295
6177.30     68.631   176.435
6267.15     69.093  -174.065
6358.31     70.301  -173.666
6450.80     70.879  -173.636
6544.62     71.563  -175.082
6639.82     71.821  -175.883
6736.40     72.268  -176.602
6834.38     72.472  -176.573
6933.79     73.160  -178.032
7034.64     73.019   178.192
7136.96     73.146   178.709
7240.77     73.012   175.149
7346.09     72.731   176.843
7452.94     72.730   175.548
7561.35     72.552   177.664
7671.33     72.898   176.866
7782.91     72.928   174.968
7896.12     72.742   172.275
8010.97     72.505   171.059
8127.49     72.234   169.751
8245.71     72.061   167.315
8365.65     71.382   167.507
8487.33     71.428   166.017
8610.78     70.786   167.133
8736.03     71.080   163.430
8863.09     70.041   161.347
8992.01     69.378   157.952
9122.80     67.608   160.542
9255.50     67.029   165.875
9390.12     65.580   169.435
9526.70     65.284  -179.860
9665.27     64.361  -170.358
9805.86     65.345  -160.531
9948.49     65.749  -153.987
10093.2     66.845  -150.081
10240.0     67.646  -152.070
10388.9     68.147  -155.359
10540.1     67.678  -159.686
10693.4     67.260  -160.376
10848.9     66.793  -159.486
11006.7     66.800  -158.238
11166.8     66.738  -159.915
11329.2     66.408  -162.936
11494.0     65.723  -163.695
11661.2     65.754  -163.886
11830.8     65.389  -170.807
12002.9     63.787  -178.578
12177.5     61.764  -176.328
12354.6     60.711  -169.366
12534.3     60.858  -168.883
12716.6     60.181  -173.183
12901.6     58.889  -179.025
13089.2     57.831   178.418
13279.6     57.123   170.307
13472.8     55.994   155.185
13668.8     54.414   136.189
13867.6     52.596   117.821
14069.3     52.021   103.545
14273.9     53.717    83.201
14481.5     54.244    57.242
14692.2     52.440    42.635
14905.9     50.819    50.600
15122.7     51.822    59.756
15342.7     51.685    63.797
15565.8     51.967    90.479
15792.2     56.707    98.915
16021.9     58.914    93.019
16255.0     60.720    90.551
16491.4     61.943    84.671
16731.3     62.845    79.984
16974.7     63.703    72.325
17221.6     63.688    62.332
17472.1     62.937    55.600
17726.2     61.569    51.606
17984.0     60.271    53.274
18245.6     58.908    56.544
18511.0     58.198    65.191
18780.2     58.008    69.095
19053.4     57.227    73.994
19330.5     57.105    82.025
19611.7     57.394    83.914
19897.0     57.091    82.971
20186.4     56.340    82.215
20480.0     55.103    78.556
20777.9     52.590    78.735
21080.1     50.369    88.690
21386.7     48.657    95.575
21697.8     44.904    98.764
22013.4     39.828   137.451
22333.6     41.230  -176.580
22658.4     43.982  -150.313
22988.0     47.503  -141.581
23322.4     49.628  -140.037
23661.6     50.622  -146.985
24005.8     49.268  -145.939
24355.0     49.965  -141.517
24709.2     48.293  -142.210
25068.6     48.487  -132.756
25433.2     47.440  -137.704
25803.2     45.896  -135.566
26178.5     42.904  -133.820
26559.3     41.070  -118.405
26945.6     40.287  -120.197
27337.5     32.194  -144.806
27735.2     23.680    71.807
28138.6     34.010    25.628
28547.9     36.903    21.478
28963.1     36.369    22.168
29384.4     37.977    42.573
29811.8     38.165    47.106
30245.4     37.542    58.025
30685.3     37.611    77.137
31131.7     38.831    93.326
31584.5     39.581   102.753
32043.9     40.730   110.117
32510.0     41.106   112.711
32982.8     41.098   113.293
33462.6     39.680   108.272
33949.3     35.141   113.000
34443.1     32.628   158.503
34944.1     35.942  -173.120
35452.4     38.951   177.503
35968.0     36.654   170.112
36491.2     34.948   175.763
37022.0     31.669  -179.684
37560.5     29.050  -152.165
38106.8     25.741  -131.934
38661.1     26.228   -84.221
39223.4     28.658   -80.201
39793.9     23.377    34.831
