Freq[Hz]     dBSPL  Phase[Deg]
5.00000     -9.287    10.281
5.07273     -8.961    11.005
5.14651     -8.737    11.552
5.22137     -8.792    11.607
5.29732     -8.848    11.662
5.37437     -8.904    11.718
5.45254     -8.959    11.773
5.53185     -9.244    12.989
5.61231     -9.772    15.435
5.69394    -10.300    17.881
5.77676    -10.827    20.327
5.86079    -11.348    22.883
5.94604    -11.492    31.943
6.03252    -11.635    41.003
6.12027    -11.779    50.064
6.20929    -11.922    59.124
6.29961    -11.140    65.140
6.39124    -10.152    70.480
6.48420     -9.165    75.821
6.57851     -8.177    81.161
6.67420     -7.475    81.719
6.77128     -6.820    81.499
6.86977     -6.164    81.280
6.96969     -5.588    80.926
7.07107     -5.615    79.546
7.17392     -5.642    78.166
7.27827     -5.668    76.786
7.38413     -6.194    77.168
7.49154     -7.106    78.911
7.60050     -8.018    80.654
7.71105     -8.839    85.024
7.82321     -9.259   100.929
7.93701     -9.678   116.834
8.05245    -10.098   132.740
8.16958     -8.211   140.238
8.28841     -6.238   147.423
8.40896     -4.265   154.607
8.53128     -3.028   153.636
8.65537     -1.885   151.614
8.78126     -0.742   149.591
8.90899     -0.569   146.044
9.03857     -0.460   142.396
9.17004     -0.533   139.180
9.30342     -2.060   139.399
9.43874     -3.586   139.618
9.57603     -4.483   153.191
9.71532     -4.416  -172.831
9.85663     -4.350  -138.854
10.0000     -1.132  -128.981
10.1455      2.964  -125.824
10.2930      6.584  -125.026
10.4427      8.875  -130.811
10.5946     11.167  -136.597
10.7487     12.826  -143.895
10.9051     14.360  -151.496
11.0637     15.668  -159.565
11.2246     16.739  -168.129
11.3879     17.734  -176.879
11.5535     18.454   173.695
11.7216     19.169   164.251
11.8921     19.584   153.785
12.0650     20.000   143.317
12.2405     20.164   131.510
12.4186     20.296   119.530
12.5992     20.235   105.574
12.7825     20.131    91.180
12.9684     19.979    73.797
13.1570     19.816    55.718
13.3484     19.987    34.370
13.5426     20.213    12.490
13.7395     21.124    -9.729
13.9394     22.104   -31.612
14.1421     23.414   -50.836
14.3478     24.703   -69.122
14.5565     25.949   -85.393
14.7683     27.052  -100.622
14.9831     28.044  -115.045
15.2010     28.773  -128.575
15.4221     29.393  -141.842
15.6464     29.741  -154.621
15.8740     29.883  -167.201
16.1049     29.861  -179.621
16.3392     29.431   168.191
16.5768     28.772   156.091
16.8179     27.801   144.107
17.0626     26.170   132.312
17.3107     23.936   120.685
17.5625     20.913   109.277
17.8180     14.198    99.398
18.0771     10.739   151.973
18.3401     11.333  -109.231
18.6068     17.527  -118.200
18.8775     20.897  -127.545
19.1521     22.765  -136.572
19.4306     23.796  -144.765
19.7133     24.195  -151.170
20.0000     24.360  -155.577
20.2909     24.496  -158.281
20.5860     24.749  -159.777
20.8855     25.238  -161.018
21.1893     25.944  -163.769
21.4975     26.632  -168.176
21.8102     27.189  -173.549
22.1274     27.568  -178.973
22.4492     27.813   176.612
22.7758     28.072   174.056
23.1071     28.586   173.390
23.4432     29.554   173.126
23.7841     30.894   170.905
24.1301     32.256   166.147
24.4811     33.406   159.680
24.8372     34.230   152.770
25.1984     34.724   146.809
25.5649     35.008   143.072
25.9368     35.336   142.143
26.3141     35.990   143.063
26.6968     37.039   143.604
27.0851     38.273   142.145
27.4791     39.416   138.667
27.8788     40.321   134.246
28.2843     41.004   129.974
28.6957     41.557   126.418
29.1131     42.078   123.596
29.5365     42.626   121.153
29.9661     43.203   118.727
30.4020     43.785   116.185
30.8442     44.362   113.561
31.2929     44.940   110.851
31.7480     45.520   107.969
32.2098     46.079   104.909
32.6783     46.599   101.844
33.1536     47.106    98.964
33.6359     47.634    96.219
34.1251     48.187    93.373
34.6215     48.725    90.321
35.1250     49.220    87.293
35.6359     49.699    84.637
36.1543     50.222    82.254
36.6802     50.810    79.702
37.2137     51.405    76.667
37.7550     51.945    73.429
38.3041     52.444    70.462
38.8613     52.974    67.811
39.4265     53.575    65.083
40.0000     54.191    61.976
40.5818     54.769    58.671
41.1721     55.311    55.572
41.7710     55.857    52.740
42.3785     56.417    50.047
42.9949     56.974    47.476
43.6203     57.530    45.162
44.2548     58.117    43.085
44.8985     58.740    40.969
45.5515     59.373    38.679
46.2141     60.002    36.267
46.8863     60.634    33.752
47.5683     61.276    31.037
48.2602     61.925    28.112
48.9621     62.589    25.053
49.6743     63.289    21.815
50.3968     64.029    18.255
51.1299     64.779    14.374
51.8736     65.529    10.349
52.6281     66.293     6.259
53.3936     67.075     1.958
54.1702     67.842    -2.690
54.9581     68.565    -7.636
55.7575     69.245   -12.835
56.5685     69.888   -18.423
57.3914     70.477   -24.535
58.2261     70.992   -31.094
59.0730     71.437   -37.914
59.9323     71.837   -44.872
60.8040     72.196   -51.902
61.6884     72.508   -58.827
62.5857     72.771   -65.468
63.4960     72.979   -71.728
64.4196     73.114   -77.563
65.3566     73.167   -82.831
66.3073     73.165   -87.610
67.2717     73.107   -92.166
68.2502     72.981   -96.489
69.2429     72.840  -100.423
70.2501     72.734  -104.297
71.2719     72.638  -108.107
72.3086     72.585  -111.614
73.3603     72.572  -115.051
74.4274     72.550  -118.141
75.5099     72.552  -120.842
76.6083     72.522  -123.422
77.7226     72.452  -125.365
78.8531     72.445  -127.014
80.0000     72.440  -128.875
81.1636     72.461  -130.480
82.3442     72.570  -132.395
83.5419     72.665  -134.617
84.7570     72.775  -136.701
85.9899     72.897  -138.805
87.2406     73.006  -140.699
88.5096     73.147  -142.350
89.7970     73.328  -144.100
91.1031     73.520  -146.157
92.4282     73.676  -148.368
93.7726     73.800  -150.493
95.1366     73.880  -152.169
96.5204     73.990  -153.225
97.9243     74.173  -153.986
99.3486     74.417  -154.871
100.794     74.709  -155.986
102.260     75.016  -157.376
103.747     75.346  -158.930
105.256     75.683  -160.646
106.787     76.012  -162.492
108.340     76.338  -164.363
109.916     76.649  -166.270
111.515     76.976  -167.984
113.137     77.362  -169.766
114.783     77.774  -171.798
116.452     78.187  -174.045
118.146     78.605  -176.277
119.865     79.037  -178.460
121.608     79.502   179.189
123.377     79.974   176.627
125.171     80.461   173.548
126.992     80.953   169.983
128.839     81.441   166.117
130.713     81.908   161.979
132.615     82.323   157.794
134.543     82.700   153.561
136.500     83.089   149.050
138.486     83.431   144.489
140.500     83.732   139.198
142.544     83.982   133.580
144.617     84.177   128.565
146.721     84.382   123.622
148.855     84.608   117.679
151.020     84.687   111.137
153.217     84.592   104.680
155.445     84.386    99.084
157.706     84.183    93.519
160.000     83.751    88.588
162.327     83.431    85.168
164.688     83.216    81.860
167.084     83.075    78.450
169.514     82.867    72.937
171.980     82.190    67.924
174.481     81.424    66.858
177.019     81.188    68.588
179.594     81.466    67.326
182.206     81.397    63.208
184.856     81.146    60.343
187.545     80.947    58.026
190.273     80.770    55.652
193.041     80.601    53.050
195.849     80.387    50.639
198.697     80.159    48.158
201.587     79.906    45.563
204.520     79.559    43.048
207.494     79.219    41.519
210.512     78.916    40.485
213.574     78.800    38.283
216.681     78.309    36.489
219.833     78.074    36.214
223.030     77.757    35.039
226.274     77.466    34.524
229.565     77.237    34.236
232.905     77.080    34.151
236.292     77.067    34.280
239.729     77.126    32.160
243.216     76.802    29.635
246.754     76.499    29.444
250.343     76.248    29.046
253.984     76.104    29.433
257.678     76.145    28.946
261.426     76.184    27.101
265.229     75.869    24.824
269.087     75.528    23.504
273.001     75.142    23.986
276.972     75.035    24.480
281.000     74.872    24.375
285.088     74.760    24.341
289.234     74.741    24.399
293.441     74.727    23.129
297.709     74.586    22.253
302.040     74.463    20.679
306.433     74.205    19.809
310.890     73.870    19.584
315.412     73.853    18.966
320.000     73.620    17.919
324.655     73.038    16.220
329.377     72.734    18.783
334.168     72.640    19.675
339.028     72.523    20.010
343.959     72.486    19.839
348.962     72.189    18.816
354.038     71.843    18.977
359.188     71.491    21.519
364.412     71.723    21.969
369.713     71.415    20.785
375.090     70.907    22.062
380.546     70.891    24.464
386.081     70.681    25.716
391.697     70.700    28.770
397.394     70.976    28.851
403.175     70.770    29.282
409.039     71.033    31.445
414.989     71.331    29.704
421.025     71.136    28.323
427.149     70.899    27.281
433.362     70.601    29.284
439.665     70.901    30.157
446.060     70.785    29.233
452.548     70.720    30.384
459.131     70.992    28.825
465.809     70.590    28.083
472.584     70.793    28.131
479.458     70.561    25.996
486.432     70.312    25.029
493.507     70.141    25.226
500.686     69.994    22.923
507.968     69.579    22.273
515.357     69.290    21.524
522.853     68.980    20.580
530.458     68.575    19.588
538.174     68.185    18.597
546.002     67.641    17.561
553.943     67.058    17.179
562.001     66.410    17.473
570.175     65.753    17.952
578.469     65.122    19.364
586.883     64.466    21.048
595.419     63.876    23.350
604.080     63.323    26.045
612.866     62.873    29.010
621.780     62.501    32.052
630.824     62.187    34.918
640.000     61.901    37.199
649.309     61.638    38.899
658.753     61.340    39.922
668.335     60.958    40.292
678.056     60.474    40.056
687.919     59.794    39.279
697.925     58.915    38.071
708.077     57.681    36.451
718.376     55.994    34.158
728.825     53.561    31.492
739.426     49.637    27.450
750.181     40.785    15.802
761.093     36.987  -122.131
772.163     49.014  -151.580
783.394     54.034  -156.159
794.789     57.287  -159.772
806.349     59.628  -162.522
818.078     61.435  -165.317
829.977     62.925  -168.045
842.050     64.158  -170.554
854.298     65.198  -172.918
866.724     66.060  -175.142
879.330     66.805  -177.228
892.120     67.432  -179.100
905.097     67.959   179.185
918.262     68.402   177.702
931.618     68.775   176.558
945.169     69.075   175.809
958.917     69.327   175.400
972.864     69.544   175.499
987.015     69.763   176.068
1001.37     69.992   177.133
1015.94     70.277   178.615
1030.71     70.640  -179.727
1045.71     71.091  -178.023
1060.92     71.629  -176.618
1076.35     72.224  -175.796
1092.00     72.852  -175.590
1107.89     73.482  -176.154
1124.00     74.070  -177.380
1140.35     74.595  -179.223
1156.94     75.034   178.466
1173.77     75.374   175.851
1190.84     75.602   173.060
1208.16     75.726   170.339
1225.73     75.745   167.781
1243.56     75.668   165.597
1261.65     75.526   163.902
1280.00     75.350   162.830
1298.62     75.177   162.398
1317.51     75.038   162.404
1336.67     74.967   162.648
1356.11     74.961   162.803
1375.84     74.999   162.636
1395.85     75.035   161.972
1416.15     75.027   160.795
1436.75     74.948   159.294
1457.65     74.760   157.685
1478.85     74.466   156.187
1500.36     74.082   155.075
1522.19     73.632   154.602
1544.33     73.159   154.699
1566.79     72.700   155.336
1589.58     72.280   156.194
1612.70     71.880   156.987
1636.16     71.444   157.597
1659.95     70.929   158.105
1684.10     70.286   158.933
1708.60     69.526   160.708
1733.45     68.722   164.015
1758.66     68.018   169.185
1784.24     67.596   175.452
1810.19     67.525  -178.703
1836.52     67.668  -174.532
1863.24     67.819  -172.582
1890.34     67.788  -172.327
1917.83     67.480  -173.057
1945.73     66.841  -173.801
1974.03     65.869  -173.539
2002.74     64.629  -171.224
2031.87     63.293  -166.110
2061.43     62.148  -158.263
2091.41     61.329  -149.468
2121.83     60.646  -141.719
2152.69     59.645  -135.044
2184.01     57.911  -125.432
2215.77     55.800  -103.874
2248.00     56.209   -69.374
2280.70     59.510   -47.292
2313.87     62.624   -40.601
2347.53     64.780   -40.089
2381.68     66.170   -40.851
2416.32     67.108   -40.825
2451.46     67.916   -39.544
2487.12     68.821   -37.908
2523.30     69.823   -37.361
2560.00     70.752   -38.555
2597.24     71.443   -41.005
2635.01     71.848   -43.721
2673.34     72.023   -45.732
2712.23     72.105   -46.541
2751.68     72.255   -46.420
2791.70     72.554   -46.330
2832.31     72.957   -47.253
2873.50     73.324   -49.664
2915.30     73.525   -53.331
2957.70     73.478   -57.461
3000.72     73.204   -61.091
3044.37     72.860   -63.516
3088.65     72.644   -65.190
3133.58     72.609   -67.696
3179.16     72.573   -72.175
3225.40     72.293   -77.971
3272.31     71.737   -83.419
3319.91     71.141   -87.303
3368.20     70.808   -90.532
3417.19     70.710   -95.326
3466.89     70.535  -102.109
3517.32     70.126  -109.003
3568.48     69.687  -114.022
3620.39     69.577  -117.929
3673.05     69.765  -123.078
3726.47     69.869  -129.806
3780.67     69.714  -136.199
3835.67     69.424  -140.549
3891.46     69.205  -142.876
3948.06     69.133  -143.907
4005.49     69.230  -144.461
4063.75     69.383  -145.603
4122.86     69.261  -146.772
4182.82     68.932  -144.466
4243.66     69.225  -138.727
4305.39     70.216  -136.732
4368.01     70.820  -139.562
4431.55     70.754  -141.304
4496.01     70.789  -140.112
4561.40     71.073  -140.901
4627.75     70.817  -143.674
4695.06     70.080  -142.849
4763.35     69.714  -139.326
4832.64     69.367  -137.887
4902.93     68.507  -134.423
4974.24     67.929  -126.390
5046.60     67.829  -118.263
5120.00     68.085  -109.551
5194.47     68.928  -104.030
5270.03     69.458  -102.916
5346.68     69.691  -101.299
5424.45     69.955  -100.974
5503.35     69.875  -101.180
5583.40     69.919  -101.561
5664.61     69.398  -106.795
5747.01     67.368  -106.226
5830.60     66.383   -93.954
5915.41     66.304   -87.096
6001.45     66.319   -78.553
6088.74     66.854   -77.480
6177.30     65.763   -75.069
6267.15     65.821   -63.669
6358.31     66.155   -59.899
6450.80     66.346   -51.809
6544.62     67.228   -47.165
6639.82     68.019   -43.742
6736.40     68.792   -43.808
6834.38     69.299   -41.838
6933.79     70.241   -44.582
7034.64     69.882   -48.108
7136.96     69.678   -47.032
7240.77     68.732   -44.760
7346.09     68.715   -33.086
7452.94     69.248   -26.108
7561.35     70.336   -17.656
7671.33     71.530   -15.560
7782.91     72.434   -14.007
7896.12     73.094   -13.900
8010.97     73.570   -12.833
8127.49     74.203   -11.763
8245.71     74.538   -13.341
8365.65     74.723   -11.323
8487.33     75.027   -12.422
8610.78     75.180   -10.745
8736.03     75.284   -13.916
8863.09     74.782   -12.098
8992.01     74.622   -12.284
9122.80     73.888    -8.068
9255.50     74.104    -3.578
9390.12     73.911    -0.445
9526.70     74.189     2.466
9665.27     73.841     5.881
9805.86     74.222    11.048
9948.49     74.521    14.296
10093.2     75.149    16.983
10240.0     75.560    16.136
10388.9     75.858    16.143
10540.1     75.838    14.541
10693.4     75.998    14.674
10848.9     75.943    12.460
11006.7     75.812    10.096
11166.8     75.260     7.039
11329.2     74.593     6.402
11494.0     73.840     5.749
11661.2     73.510     6.009
11830.8     72.843     2.987
12002.9     71.748    -2.519
12177.5     70.013    -2.408
12354.6     68.191    -0.333
12534.3     67.254     2.907
12716.6     65.871     4.334
12901.6     64.201     2.898
13089.2     62.064     0.212
13279.6     57.776     2.588
13472.8     53.975    29.387
13668.8     54.136    48.863
13867.6     53.608    58.188
14069.3     52.840    63.915
14273.9     51.908    65.724
14481.5     50.931    58.571
14692.2     48.702    41.816
14905.9     47.258    25.858
15122.7     48.501     0.424
15342.7     49.128   -24.868
15565.8     49.177   -19.630
15792.2     52.484   -12.789
16021.9     54.413   -17.653
16255.0     54.858    -7.925
16491.4     57.755     3.846
16731.3     60.033     0.557
16974.7     60.938    -0.008
17221.6     62.181     1.490
17472.1     62.905    -2.098
17726.2     62.629    -2.371
17984.0     62.207     0.977
18245.6     62.028     8.937
18511.0     62.506    14.394
18780.2     62.605    16.779
19053.4     62.296    20.174
19330.5     61.926    23.865
19611.7     61.152    29.036
19897.0     60.785    35.925
20186.4     60.152    38.781
20480.0     58.726    43.170
20777.9     57.000    51.390
21080.1     55.561    63.701
21386.7     53.887    76.547
21697.8     52.667    92.663
22013.4     51.056   109.197
22333.6     50.185   134.716
22658.4     50.119   150.301
22988.0     48.691  -179.125
23322.4     52.185  -153.652
23661.6     53.658  -152.868
24005.8     53.746  -145.713
24355.0     53.475  -140.275
24709.2     53.324  -127.180
25068.6     53.815  -126.351
25433.2     52.209  -125.936
25803.2     49.688  -118.136
26178.5     47.514  -103.058
26559.3     45.243   -87.962
26945.6     44.177   -71.003
27337.5     39.171   -66.655
27735.2     35.283    -3.838
28138.6     37.422    27.042
28547.9     37.351    57.433
28963.1     38.953    74.807
29384.4     38.626   102.429
29811.8     38.308   126.827
30245.4     40.355   150.749
30685.3     40.561   165.122
31131.7     40.268  -167.825
31584.5     42.710  -146.787
32043.9     43.959  -143.041
32510.0     42.442  -133.869
32982.8     41.814  -115.151
33462.6     41.000  -102.020
33949.3     39.117   -78.913
34443.1     39.125   -46.121
34944.1     40.161   -26.203
35452.4     41.714   -19.095
35968.0     38.237   -12.334
36491.2     36.854    24.229
37022.0     37.652    50.709
37560.5     38.574    66.823
38106.8     38.523    75.267
38661.1     36.521    91.554
39223.4     35.868   109.757
39793.9     34.046   119.458
