Freq[Hz]     dBSPL  Phase[Deg]
5.00000     -5.777     6.014
5.07273     -5.451     6.628
5.14651     -5.225     7.064
5.22137     -5.278     7.003
5.29732     -5.330     6.941
5.37437     -5.383     6.879
5.45254     -5.436     6.817
5.53185     -5.717     7.916
5.61231     -6.239    10.241
5.69394     -6.761    12.566
5.77676     -7.283    14.890
5.86079     -7.799    17.326
5.94604     -7.935    26.266
6.03252     -8.070    35.206
6.12027     -8.205    44.146
6.20929     -8.340    53.085
6.29961     -7.548    58.985
6.39124     -6.550    64.210
6.48420     -5.552    69.436
6.57851     -4.553    74.661
6.67420     -3.839    75.112
6.77128     -3.170    74.787
6.86977     -2.501    74.463
6.96969     -1.911    74.005
7.07107     -1.923    72.534
7.17392     -1.934    71.063
7.27827     -1.946    69.592
7.38413     -2.456    69.894
7.49154     -3.351    71.565
7.60050     -4.247    73.235
7.71105     -5.051    77.536
7.82321     -5.453    93.390
7.93701     -5.855   109.244
8.05245     -6.258   125.098
8.16958     -4.353   132.567
8.28841     -2.363   139.723
8.40896     -0.372   146.878
8.53128      0.882   145.900
8.65537      2.041   143.872
8.78126      3.200   141.843
8.90899      3.387   138.311
9.03857      3.510   134.680
9.17004      3.451   131.483
9.30342      1.937   131.738
9.43874      0.422   131.992
9.57603     -0.463   145.608
9.71532     -0.389   179.638
9.85663     -0.314  -146.333
10.0000      2.909  -136.401
10.1455      7.009  -133.182
10.2930     10.632  -132.319
10.4427     12.923  -138.038
10.5946     15.214  -143.757
10.7487     16.869  -150.989
10.9051     18.398  -158.524
11.0637     19.700  -166.532
11.2246     20.761  -175.039
11.3879     21.746   176.264
11.5535     22.452   166.881
11.7216     23.154   157.479
11.8921     23.552   147.034
12.0650     23.950   136.588
12.2405     24.094   124.779
12.4186     24.206   112.794
12.5992     24.122    98.809
12.7825     23.996    84.380
12.9684     23.821    66.936
13.1570     23.635    48.791
13.3484     23.783    27.346
13.5426     23.985     5.366
13.7395     24.874   -16.985
13.9394     25.833   -39.005
14.1421     27.123   -58.392
14.3478     28.394   -76.851
14.5565     29.624   -93.311
14.7683     30.714  -108.741
14.9831     31.695  -123.374
15.2010     32.416  -137.125
15.4221     33.031  -150.616
15.6464     33.379  -163.623
15.8740     33.524  -176.428
16.1049     33.509   170.929
16.3392     33.091   158.533
16.5768     32.447   146.235
16.8179     31.494   134.067
17.0626     29.886   122.121
17.3107     27.677   110.364
17.5625     24.682    98.854
17.8180     17.999    88.923
18.0771     14.571   141.480
18.3401     15.198  -119.706
18.6068     21.422  -128.598
18.8775     24.822  -137.818
19.1521     26.716  -146.678
19.4306     27.771  -154.660
19.7133     28.186  -160.799
20.0000     28.360  -164.902
20.2909     28.498  -167.272
20.5860     28.743  -168.410
20.8855     29.216  -169.276
21.1893     29.892  -171.646
21.4975     30.541  -175.681
21.8102     31.047   179.298
22.1274     31.367   174.195
22.4492     31.543   170.060
22.7758     31.724   167.734
23.1071     32.155   167.239
23.4432     33.033   167.078
23.7841     34.279   164.886
24.1301     35.547   160.083
24.4811     36.603   153.499
24.8372     37.334   146.403
25.1984     37.740   140.189
25.5649     37.942   136.139
25.9368     38.193   134.843
26.3141     38.780   135.352
26.6968     39.770   135.447
27.0851     40.953   133.517
27.4791     42.057   129.555
27.8788     42.933   124.651
28.2843     43.597   119.908
28.6957     44.139   115.906
29.1131     44.658   112.674
29.5365     45.211   109.864
29.9661     45.798   107.122
30.4020     46.393   104.320
30.8442     46.986   101.500
31.2929     47.578    98.648
31.7480     48.171    95.672
32.2098     48.739    92.560
32.6783     49.264    89.480
33.1536     49.771    86.608
33.6359     50.294    83.885
34.1251     50.839    81.065
34.6215     51.364    78.040
35.1250     51.846    75.036
35.6359     52.308    72.400
36.1543     52.816    70.038
36.6802     53.388    67.513
37.2137     53.968    64.519
37.7550     54.493    61.341
38.3041     54.976    58.464
38.8613     55.487    55.929
39.4265     56.065    53.346
40.0000     56.651    50.404
40.5818     57.192    47.273
41.1721     57.687    44.341
41.7710     58.180    41.652
42.3785     58.679    39.058
42.9949     59.170    36.530
43.6203     59.657    34.193
44.2548     60.177    32.019
44.8985     60.738    29.734
45.5515     61.318    27.221
46.2141     61.905    24.549
46.8863     62.508    21.765
47.5683     63.137    18.809
48.2602     63.782    15.706
48.9621     64.450    12.557
49.6743     65.156     9.328
50.3968     65.895     5.873
51.1299     66.635     2.167
51.8736     67.360    -1.652
52.6281     68.084    -5.550
53.3936     68.814    -9.717
54.1702     69.522   -14.323
54.9581     70.187   -19.336
55.7575     70.819   -24.699
56.5685     71.431   -30.511
57.3914     72.008   -36.849
58.2261     72.532   -43.568
59.0730     73.000   -50.412
59.9323     73.426   -57.229
60.8040     73.803   -63.952
61.6884     74.110   -70.444
62.5857     74.342   -76.607
63.4960     74.491   -82.435
64.4196     74.545   -87.961
65.3566     74.508   -93.098
66.3073     74.420   -97.924
67.2717     74.295  -102.666
68.2502     74.127  -107.227
69.2429     73.967  -111.357
70.2501     73.859  -115.302
71.2719     73.760  -119.030
72.3086     73.692  -122.339
73.3603     73.642  -125.543
74.4274     73.564  -128.467
75.5099     73.499  -131.144
76.6083     73.407  -133.860
77.7226     73.295  -136.052
78.8531     73.272  -137.969
80.0000     73.276  -140.014
81.1636     73.315  -141.649
82.3442     73.438  -143.441
83.5419     73.532  -145.445
84.7570     73.625  -147.307
85.9899     73.716  -149.250
87.2406     73.795  -151.057
88.5096     73.912  -152.656
89.7970     74.077  -154.332
91.1031     74.254  -156.262
92.4282     74.386  -158.310
93.7726     74.476  -160.294
95.1366     74.516  -161.900
96.5204     74.590  -162.967
97.9243     74.750  -163.775
99.3486     74.980  -164.683
100.794     75.263  -165.761
102.260     75.557  -167.069
103.747     75.868  -168.546
105.256     76.184  -170.222
106.787     76.497  -172.055
108.340     76.813  -173.899
109.916     77.118  -175.734
111.515     77.433  -177.340
113.137     77.803  -179.012
114.783     78.196   179.041
116.452     78.588   176.855
118.146     78.988   174.668
119.865     79.402   172.508
121.608     79.855   170.156
123.377     80.322   167.597
125.171     80.811   164.582
126.992     81.301   161.169
128.839     81.773   157.486
130.713     82.210   153.462
132.615     82.594   149.276
134.543     82.955   144.983
136.500     83.341   140.446
138.486     83.683   135.925
140.500     83.977   130.716
142.544     84.214   125.179
144.617     84.395   120.208
146.721     84.585   115.269
148.855     84.802   109.298
151.020     84.881   102.749
153.217     84.790    96.353
155.445     84.578    90.864
157.706     84.359    85.372
160.000     83.911    80.440
162.327     83.584    76.993
164.688     83.367    73.692
167.084     83.220    70.314
169.514     83.001    64.801
171.980     82.320    59.745
174.481     81.559    58.673
177.019     81.323    60.466
179.594     81.588    59.248
182.206     81.507    55.057
184.856     81.264    52.126
187.545     81.072    49.867
190.273     80.884    47.562
193.041     80.700    44.913
195.849     80.485    42.419
198.697     80.258    39.908
201.587     80.001    37.292
204.520     79.649    34.721
207.494     79.307    33.122
210.512     79.003    32.015
213.574     78.886    29.734
216.681     78.395    27.856
219.833     78.159    27.495
223.030     77.841    26.161
226.274     77.571    25.483
229.565     77.361    25.267
232.905     77.180    25.234
236.292     77.145    25.119
239.729     77.216    22.795
243.216     76.889    20.159
246.754     76.585    19.759
250.343     76.337    19.220
253.984     76.178    19.407
257.678     76.219    18.617
261.426     76.261    16.573
265.229     75.932    14.035
269.087     75.586    12.368
273.001     75.196    12.532
276.972     75.085    12.700
281.000     74.908    12.245
285.088     74.785    11.740
289.234     74.760    11.419
293.441     74.711     9.726
297.709     74.543     8.286
302.040     74.392     6.202
306.433     74.089     4.753
310.890     73.698     3.865
315.412     73.611     2.517
320.000     73.310     0.647
324.655     72.650    -1.763
329.377     72.234     0.076
334.168     71.992     0.073
339.028     71.726    -0.524
343.959     71.511    -1.388
348.962     70.995    -3.062
354.038     70.396    -3.412
359.188     69.751    -1.223
364.412     69.650    -0.915
369.713     69.010    -1.860
375.090     68.160     0.101
380.546     67.810     3.766
386.081     67.268     6.601
391.697     67.043    11.626
397.394     67.119    14.126
403.175     66.792    16.964
409.039     66.990    21.450
414.989     67.317    21.818
421.025     67.191    22.501
427.149     67.057    23.061
433.362     66.879    26.537
439.665     67.296    28.564
446.060     67.329    28.493
452.548     67.373    30.492
459.131     67.749    29.427
465.809     67.447    28.935
472.584     67.726    29.332
479.458     67.566    27.189
486.432     67.369    26.295
493.507     67.219    26.547
500.686     67.078    24.077
507.968     66.641    23.355
515.357     66.299    22.510
522.853     65.909    21.473
530.458     65.366    20.603
538.174     64.791    19.610
546.002     64.037    18.879
553.943     63.149    19.303
562.001     62.159    20.766
570.175     61.105    23.443
578.469     60.027    28.380
586.883     59.051    35.049
595.419     58.327    43.573
604.080     57.951    53.251
612.866     58.121    62.808
621.780     58.524    70.943
630.824     59.145    76.929
640.000     59.784    80.842
649.309     60.290    83.332
658.753     60.710    84.680
668.335     60.952    85.339
678.056     61.056    85.466
687.919     60.985    85.621
697.925     60.733    86.123
708.077     60.295    87.265
718.376     59.659    89.430
728.825     58.904    93.106
739.426     58.078    99.879
750.181     57.404   109.646
761.093     57.178   122.266
772.163     57.695   135.326
783.394     58.774   146.401
794.789     60.208   154.205
806.349     61.649   158.936
818.078     62.973   161.404
829.977     64.158   162.414
842.050     65.175   162.375
854.298     66.054   161.742
866.724     66.780   160.785
879.330     67.394   159.642
892.120     67.897   158.465
905.097     68.309   157.469
918.262     68.640   156.694
931.618     68.922   156.135
945.169     69.164   156.071
958.917     69.387   156.309
972.864     69.630   156.828
987.015     69.913   157.672
1001.37     70.240   158.657
1015.94     70.629   159.543
1030.71     71.070   160.125
1045.71     71.564   160.392
1060.92     72.082   160.061
1076.35     72.591   159.178
1092.00     73.080   157.681
1107.89     73.525   155.642
1124.00     73.907   153.083
1140.35     74.205   150.075
1156.94     74.420   146.710
1173.77     74.527   143.102
1190.84     74.524   139.406
1208.16     74.406   135.664
1225.73     74.160   132.065
1243.56     73.798   128.716
1261.65     73.320   125.927
1280.00     72.746   123.791
1298.62     72.115   122.568
1317.51     71.464   122.356
1336.67     70.849   123.118
1356.11     70.349   124.454
1375.84     69.981   126.049
1395.85     69.735   127.217
1416.15     69.536   127.614
1436.75     69.320   127.186
1457.65     68.985   125.930
1478.85     68.496   124.169
1500.36     67.835   122.520
1522.19     66.952   121.390
1544.33     65.894   121.358
1566.79     64.723   122.916
1589.58     63.575   126.400
1612.70     62.587   131.262
1636.16     61.838   136.708
1659.95     61.257   141.402
1684.10     60.694   144.926
1708.60     59.941   147.836
1733.45     58.985   150.881
1758.66     57.723   155.928
1784.24     56.395   163.906
1810.19     55.300   175.443
1836.52     54.919  -171.543
1863.24     55.159  -160.519
1890.34     55.501  -153.407
1917.83     55.515  -150.055
1945.73     55.020  -147.949
1974.03     53.595  -144.393
2002.74     51.172  -133.657
2031.87     49.094  -104.106
2061.43     51.254   -67.797
2091.41     55.133   -53.246
2121.83     58.108   -51.245
2152.69     60.113   -53.485
2184.01     61.412   -56.585
2215.77     62.210   -59.350
2248.00     62.755   -61.071
2280.70     63.198   -62.051
2313.87     63.628   -63.127
2347.53     63.999   -64.848
2381.68     64.203   -67.322
2416.32     64.164   -69.980
2451.46     63.941   -71.916
2487.12     63.650   -72.913
2523.30     63.492   -73.455
2560.00     63.449   -74.781
2597.24     63.399   -77.986
2635.01     63.181   -82.892
2673.34     62.710   -88.952
2712.23     62.015   -95.708
2751.68     61.185  -103.371
2791.70     60.246  -112.289
2832.31     59.182  -123.054
2873.50     58.059  -135.087
2915.30     57.084  -147.092
2957.70     56.650  -158.158
3000.72     57.021  -168.510
3044.37     57.925  -179.406
3088.65     58.859   169.544
3133.58     59.503   160.198
3179.16     59.946   154.504
3225.40     60.538   152.115
3272.31     61.353   150.285
3319.91     62.096   147.439
3368.20     62.541   144.955
3417.19     62.864   144.427
3466.89     63.358   144.648
3517.32     63.878   143.369
3568.48     64.062   141.218
3620.39     63.925   140.903
3673.05     63.959   142.850
3726.47     64.274   143.536
3780.67     64.329   141.702
3835.67     63.834   140.849
3891.46     63.296   143.623
3948.06     63.194   146.775
4005.49     63.023   147.363
4063.75     62.367   149.120
4122.86     61.856   154.331
4182.82     61.837   158.680
4243.66     61.640   161.316
4305.39     61.484   166.120
4368.01     62.012   169.154
4431.55     62.331   165.792
4496.01     61.739   161.421
4561.40     60.890   160.678
4627.75     60.181   159.291
4695.06     58.783   158.435
4763.35     57.625   166.487
4832.64     58.017   171.304
4902.93     57.607   169.410
4974.24     57.065   177.270
5046.60     58.668  -179.191
5120.00     59.337   172.037
5194.47     58.900   169.777
5270.03     59.661   169.322
5346.68     59.736   161.068
5424.45     58.941   163.180
5503.35     60.277   165.585
5583.40     60.490   153.922
5664.61     58.286   154.134
5747.01     58.171   171.455
5830.60     59.906   179.206
5915.41     61.493   177.790
6001.45     61.576   172.726
6088.74     61.286   179.120
6177.30     62.343  -178.417
6267.15     62.375  -176.321
6358.31     63.615  -172.460
6450.80     64.004  -178.511
6544.62     63.778  -176.258
6639.82     64.226  -178.954
6736.40     63.443  -178.467
6834.38     63.856  -176.141
6933.79     63.366  -178.822
7034.64     63.023  -175.625
7136.96     62.630  -173.103
7240.77     63.086  -168.515
7346.09     63.127  -168.252
7452.94     64.056  -164.777
7561.35     64.664  -169.557
7671.33     65.418  -172.227
7782.91     65.536   177.942
7896.12     65.254   173.399
8010.97     64.520   165.148
8127.49     63.559   165.680
8245.71     62.691   164.253
8365.65     62.467   169.986
8487.33     62.489   167.991
8610.78     62.476   165.868
8736.03     61.415   158.541
8863.09     58.733   160.425
8992.01     58.261   177.746
9122.80     58.336  -177.549
9255.50     59.347  -175.142
9390.12     58.112  -177.008
9526.70     58.196  -173.239
9665.27     57.331  -168.679
9805.86     57.606  -164.522
9948.49     57.610  -161.747
10093.2     58.027  -159.286
10240.0     58.327  -161.062
10388.9     58.461  -163.098
10540.1     58.398  -166.780
10693.4     57.897  -170.738
10848.9     57.565  -174.219
11006.7     56.596  -178.922
11166.8     55.470   177.762
11329.2     54.346   177.718
11494.0     53.566   175.102
11661.2     52.547   170.461
11830.8     50.886   162.815
12002.9     48.525   154.759
12177.5     44.581   155.366
12354.6     40.920   171.603
12534.3     40.608  -177.904
12716.6     38.364  -178.860
12901.6     36.361  -166.127
13089.2     35.201  -176.768
13279.6     27.673   167.355
13472.8     21.138   177.216
13668.8     25.450   177.806
13867.6     20.078    55.723
14069.3     23.394   -59.672
14273.9     20.132  -169.181
14481.5     21.674   107.399
14692.2     25.682    93.499
14905.9     29.546    81.135
15122.7     30.937    51.160
15342.7     28.241    14.527
15565.8     27.962   -60.082
15792.2     32.329  -141.264
16021.9     35.594  -174.290
16255.0     36.451   170.531
16491.4     36.315   165.727
16731.3     37.757   165.005
16974.7     39.166   149.881
17221.6     38.609   132.913
17472.1     37.939   128.800
17726.2     36.802   124.002
17984.0     34.905   133.750
18245.6     33.436   156.423
18511.0     35.465   178.979
18780.2     36.063  -171.459
19053.4     36.742  -161.275
19330.5     37.862  -158.944
19611.7     37.085  -162.259
19897.0     35.329  -169.269
20186.4     33.270  -172.553
20480.0     30.006  -174.774
20777.9     24.053   -46.573
21080.1     18.702   103.269
21386.7     21.907  -150.597
21697.8     28.107    -6.246
22013.4     31.045    -9.116
22333.6     32.182    -7.345
22658.4     32.768    -2.186
22988.0     34.976     2.556
23322.4     35.133    -0.487
23661.6     35.147     7.667
24005.8     35.022    12.731
24355.0     33.699    17.462
24709.2     33.611    21.522
25068.6     33.602    10.280
25433.2     31.432     2.409
25803.2     30.135     0.968
26178.5     26.779     1.723
26559.3     22.565    26.088
26945.6     20.189   -45.183
27337.5     19.009   117.999
27735.2     20.431    42.290
28138.6     25.272   172.997
28547.9     26.053   162.332
28963.1     20.615  -144.442
29384.4     16.500   -79.606
29811.8     17.975   -93.345
30245.4     16.691  -167.493
30685.3     18.636   144.740
31131.7     20.013   -27.303
31584.5     21.488    71.240
32043.9     21.694    22.491
32510.0     23.017  -139.775
32982.8     21.800   -60.062
33462.6     19.886   -12.469
33949.3     16.992   107.388
34443.1     16.893   -21.731
34944.1     16.833    39.355
35452.4     19.642   -56.648
35968.0     18.083    53.378
36491.2     17.958  -104.488
37022.0     16.927    87.961
37560.5     18.431    57.994
38106.8     17.831    12.741
38661.1     16.220   -56.642
39223.4     17.779   -49.253
39793.9     17.002  -120.778
