Freq[Hz]     dBSPL  Phase[Deg]
5.00000    -14.933   -14.960
5.07273    -14.569   -15.050
5.14651    -14.144   -15.152
5.22137    -13.699   -15.259
5.29732    -13.255   -15.368
5.37437    -12.811   -15.478
5.45254    -12.367   -15.590
5.53185    -11.922   -15.704
5.61231    -11.478   -15.819
5.69394    -11.034   -15.937
5.77676    -10.589   -16.055
5.86079    -10.145   -16.176
5.94604     -9.700   -16.298
6.03252     -9.256   -16.422
6.12027     -8.811   -16.548
6.20929     -8.367   -16.676
6.29961     -7.922   -16.806
6.39124     -7.478   -16.937
6.48420     -7.033   -17.071
6.57851     -6.589   -17.207
6.67420     -6.144   -17.344
6.77128     -5.699   -17.484
6.86977     -5.255   -17.625
6.96969     -4.810   -17.769
7.07107     -4.365   -17.915
7.17392     -3.920   -18.063
7.27827     -3.475   -18.213
7.38413     -3.031   -18.366
7.49154     -2.586   -18.521
7.60050     -2.141   -18.678
7.71105     -1.696   -18.837
7.82321     -1.251   -18.999
7.93701     -0.805   -19.163
8.05245     -0.360   -19.330
8.16958      0.085   -19.499
8.28841      0.530   -19.670
8.40896      0.975   -19.845
8.53128      1.421   -20.021
8.65537      1.866   -20.201
8.78126      2.312   -20.383
8.90899      2.757   -20.568
9.03857      3.203   -20.756
9.17004      3.648   -20.946
9.30342      4.094   -21.139
9.43874      4.540   -21.336
9.57603      4.985   -21.535
9.71532      5.431   -21.737
9.85663      5.877   -21.942
10.0000      6.323   -22.151
10.1455      6.769   -22.362
10.2930      7.215   -22.577
10.4427      7.662   -22.795
10.5946      8.108   -23.016
10.7487      8.554   -23.241
10.9051      9.001   -23.469
11.0637      9.447   -23.700
11.2246      9.894   -23.935
11.3879     10.341   -24.174
11.5535     10.787   -24.416
11.7216     11.234   -24.662
11.8921     11.681   -24.912
12.0650     12.128   -25.166
12.2405     12.576   -25.423
12.4186     13.023   -25.685
12.5992     13.470   -25.951
12.7825     13.918   -26.220
12.9684     14.365   -26.494
13.1570     14.813   -26.772
13.3484     15.261   -27.055
13.5426     15.709   -27.342
13.7395     16.157   -27.633
13.9394     16.605   -27.929
14.1421     17.054   -28.229
14.3478     17.502   -28.535
14.5565     17.951   -28.845
14.7683     18.400   -29.160
14.9831     18.849   -29.480
15.2010     19.298   -29.805
15.4221     19.747   -30.135
15.6464     20.197   -30.471
15.8740     20.646   -30.812
16.1049     21.096   -31.158
16.3392     21.546   -31.510
16.5768     21.996   -31.868
16.8179     22.447   -32.231
17.0626     22.897   -32.600
17.3107     23.348   -32.976
17.5625     23.799   -33.357
17.8180     24.250   -33.745
18.0771     24.701   -34.139
18.3401     25.153   -34.540
18.6068     25.605   -34.947
18.8775     26.057   -35.361
19.1521     26.509   -35.782
19.4306     26.961   -36.210
19.7133     27.414   -36.645
20.0000     27.867   -37.088
20.2909     28.334   -37.513
20.5860     28.878   -37.802
20.8855     29.516   -38.022
21.1893     30.158   -38.859
21.4975     30.704   -40.750
21.8102     31.119   -42.890
22.1274     31.406   -43.880
22.4492     31.630   -43.554
22.7758     31.951   -42.847
23.1071     32.447   -42.464
23.4432     33.028   -42.464
23.7841     33.590   -42.720
24.1301     34.112   -43.287
24.4811     34.606   -44.154
24.8372     35.070   -45.242
25.1984     35.514   -46.372
25.5649     35.956   -47.368
25.9368     36.416   -48.145
26.3141     36.918   -48.787
26.6968     37.459   -49.489
27.0851     37.996   -50.453
27.4791     38.491   -51.683
27.8788     38.946   -52.934
28.2843     39.388   -54.010
28.6957     39.826   -55.028
29.1131     40.271   -56.104
29.5365     40.728   -57.149
29.9661     41.211   -58.079
30.4020     41.727   -58.993
30.8442     42.261   -60.113
31.2929     42.768   -61.476
31.7480     43.217   -62.896
32.2098     43.651   -64.190
32.6783     44.118   -65.372
33.1536     44.609   -66.530
33.6359     45.097   -67.895
34.1251     45.615   -69.350
34.6215     46.185   -70.569
35.1250     46.725   -72.127
35.6359     47.159   -74.194
36.1543     47.501   -75.903
36.6802     47.883   -76.709
37.2137     48.367   -77.725
37.7550     48.921   -79.536
38.3041     49.463   -81.496
38.8613     49.963   -83.167
39.4265     50.427   -84.687
40.0000     50.879   -86.238
40.5818     51.343   -87.780
41.1721     51.827   -89.414
41.7710     52.327   -91.213
42.3785     52.819   -93.071
42.9949     53.290   -94.941
43.6203     53.762   -96.819
44.2548     54.261   -98.694
44.8985     54.767  -100.616
45.5515     55.251  -102.625
46.2141     55.722  -104.658
46.8863     56.214  -106.714
47.5683     56.710  -108.900
48.2602     57.171  -111.122
48.9621     57.607  -113.284
49.6743     58.062  -115.481
50.3968     58.552  -117.823
51.1299     59.041  -120.309
51.8736     59.513  -122.839
52.6281     59.966  -125.382
53.3936     60.410  -127.810
54.1702     60.856  -130.140
54.9581     61.315  -132.617
55.7575     61.766  -135.488
56.5685     62.198  -138.519
57.3914     62.613  -141.435
58.2261     63.023  -144.236
59.0730     63.426  -147.069
59.9323     63.818  -149.984
60.8040     64.208  -152.984
61.6884     64.602  -156.039
62.5857     64.994  -159.089
63.4960     65.368  -162.140
64.4196     65.720  -165.320
65.3566     66.049  -168.683
66.3073     66.360  -172.131
67.2717     66.660  -175.476
68.2502     66.950  -178.698
69.2429     67.230   178.139
70.2501     67.505   174.943
71.2719     67.784   171.698
72.3086     68.056   168.393
73.3603     68.297   164.995
74.4274     68.500   161.548
75.5099     68.696   158.201
76.6083     68.904   155.006
77.7226     69.106   151.836
78.8531     69.290   148.568
80.0000     69.451   145.235
81.1636     69.582   141.948
82.3442     69.688   138.727
83.5419     69.791   135.678
84.7570     69.906   132.793
85.9899     70.029   129.878
87.2406     70.153   126.828
88.5096     70.255   123.815
89.7970     70.330   120.907
91.1031     70.397   118.003
92.4282     70.463   115.127
93.7726     70.521   112.321
95.1366     70.570   109.592
96.5204     70.612   106.883
97.9243     70.644   104.221
99.3486     70.668   101.618
100.794     70.687    99.080
102.260     70.703    96.592
103.747     70.718    94.161
105.256     70.725    91.763
106.787     70.721    89.407
108.340     70.716    87.139
109.916     70.720    84.962
111.515     70.724    82.790
113.137     70.724    80.623
114.783     70.707    78.541
116.452     70.679    76.494
118.146     70.657    74.530
119.865     70.651    72.666
121.608     70.650    70.913
123.377     70.650    69.076
125.171     70.648    67.229
126.992     70.643    65.377
128.839     70.637    63.621
130.713     70.633    61.904
132.615     70.638    60.280
134.543     70.656    58.596
136.500     70.680    56.863
138.486     70.699    55.037
140.500     70.699    53.166
142.544     70.683    51.312
144.617     70.660    49.543
146.721     70.643    47.878
148.855     70.624    46.285
151.020     70.612    44.781
153.217     70.623    43.212
155.445     70.635    41.512
157.706     70.631    39.781
160.000     70.617    38.090
162.327     70.601    36.429
164.688     70.576    34.809
167.084     70.547    33.310
169.514     70.533    31.823
171.980     70.525    30.259
174.481     70.512    28.635
177.019     70.479    27.003
179.594     70.422    25.505
182.206     70.359    24.321
184.856     70.338    23.393
187.545     70.384    22.373
190.273     70.461    20.953
193.041     70.508    19.228
195.849     70.512    17.474
198.697     70.489    15.881
201.587     70.478    14.464
204.520     70.504    13.049
207.494     70.549    11.339
210.512     70.553     9.306
213.574     70.485     7.350
216.681     70.394     5.846
219.833     70.347     4.487
223.030     70.309     2.813
226.274     70.206     1.201
229.565     70.086     0.262
232.905     70.062    -0.267
236.292     70.116    -1.211
239.729     70.165    -2.508
243.216     70.210    -3.964
246.754     70.254    -5.612
250.343     70.259    -7.577
253.984     70.200    -9.459
257.678     70.119   -11.071
261.426     70.034   -12.401
265.229     69.972   -13.586
269.087     69.946   -14.680
273.001     69.974   -16.038
276.972     69.978   -17.713
281.000     69.925   -19.501
285.088     69.821   -20.881
289.234     69.757   -21.881
293.441     69.755   -22.901
297.709     69.777   -24.214
302.040     69.778   -25.786
306.433     69.748   -27.464
310.890     69.681   -29.123
315.412     69.573   -30.379
320.000     69.525   -31.256
324.655     69.561   -32.190
329.377     69.627   -33.735
334.168     69.623   -35.594
339.028     69.580   -37.249
343.959     69.555   -38.479
348.962     69.615   -39.958
354.038     69.687   -42.122
359.188     69.660   -44.951
364.412     69.460   -47.553
369.713     69.190   -49.140
375.090     69.032   -49.776
380.546     69.010   -50.550
386.081     69.004   -52.153
391.697     68.876   -53.896
397.394     68.697   -55.004
403.175     68.648   -55.377
409.039     68.771   -56.353
414.989     68.869   -58.597
421.025     68.744   -61.629
427.149     68.416   -63.743
433.362     68.116   -64.084
439.665     68.042   -63.639
446.060     68.166   -63.758
452.548     68.336   -65.305
459.131     68.405   -67.960
465.809     68.218   -70.405
472.584     68.035   -71.181
479.458     68.052   -72.094
486.432     68.030   -73.703
493.507     67.874   -75.000
500.686     67.814   -75.383
507.968     67.987   -76.453
515.357     68.131   -78.307
522.853     68.190   -81.045
530.458     68.063   -83.880
538.174     67.847   -85.490
546.002     67.790   -86.553
553.943     67.741   -88.131
562.001     67.706   -88.860
570.175     67.828   -89.278
578.469     68.232   -91.800
586.883     68.328   -97.510
595.419     67.895  -103.039
604.080     67.298  -105.161
612.866     66.907  -104.568
621.780     66.756  -103.177
630.824     66.885  -103.067
640.000     67.196  -104.424
649.309     67.340  -107.627
658.753     67.225  -110.726
668.335     67.046  -112.691
678.056     66.934  -113.831
687.919     66.920  -115.480
697.925     67.056  -117.754
708.077     67.160  -120.700
718.376     67.226  -124.214
728.825     66.979  -128.619
739.426     66.550  -130.429
750.181     66.426  -130.318
761.093     66.695  -132.262
772.163     66.685  -137.482
783.394     66.229  -141.524
794.789     65.698  -142.684
806.349     65.427  -142.569
818.078     65.409  -142.637
829.977     65.396  -144.196
842.050     65.199  -144.690
854.298     65.338  -144.225
866.724     65.830  -145.874
879.330     66.095  -151.036
892.120     65.867  -154.614
905.097     65.684  -156.356
918.262     65.764  -158.972
931.618     65.722  -163.156
945.169     65.272  -165.929
958.917     64.872  -167.134
972.864     64.893  -167.394
987.015     65.231  -169.294
1001.37     65.306  -173.567
1015.94     64.954  -177.682
1030.71     64.483  -179.229
1045.71     64.381  -179.939
1060.92     64.638   177.620
1076.35     64.761   173.899
1092.00     64.541   169.445
1107.89     64.040   165.476
1124.00     63.532   164.054
1140.35     63.605   162.537
1156.94     63.576   158.556
1173.77     63.132   157.371
1190.84     62.816   157.523
1208.16     62.746   155.569
1225.73     62.613   153.875
1243.56     62.729   154.129
1261.65     62.997   151.441
1280.00     62.899   147.563
1298.62     62.651   145.643
1317.51     62.801   143.779
1336.67     63.158   140.726
1356.11     63.443   136.318
1375.84     63.343   130.355
1395.85     62.857   126.299
1416.15     62.510   124.584
1436.75     62.451   123.000
1457.65     62.512   119.780
1478.85     62.454   115.481
1500.36     62.429   110.674
1522.19     61.957   105.609
1544.33     61.501   102.249
1566.79     61.016   102.302
1589.58     61.054   103.595
1612.70     61.251   102.191
1636.16     61.578    99.279
1659.95     61.953    95.715
1684.10     62.027    88.921
1708.60     61.737    81.893
1733.45     61.310    80.219
1758.66     61.409    79.860
1784.24     61.783    76.129
1810.19     61.699    68.987
1836.52     61.296    63.535
1863.24     60.566    62.080
1890.34     60.058    61.318
1917.83     60.141    59.119
1945.73     60.914    52.407
1974.03     61.441    48.325
2002.74     61.773    46.801
2031.87     62.272    43.303
2061.43     62.594    32.520
2091.41     62.303    20.679
2121.83     61.637    13.976
2152.69     61.155    10.647
2184.01     60.956     8.229
2215.77     60.836     5.352
2248.00     60.648     1.253
2280.70     60.576    -4.934
2313.87     60.308   -13.237
2347.53     59.976   -21.273
2381.68     59.747   -26.000
2416.32     59.667   -27.327
2451.46     59.579   -32.051
2487.12     59.507   -37.846
2523.30     59.324   -42.089
2560.00     59.106   -44.788
2597.24     59.583   -49.569
2635.01     60.166   -54.277
2673.34     60.125   -59.298
2712.23     59.953   -64.993
2751.68     60.113   -70.269
2791.70     60.309   -74.294
2832.31     59.830   -80.816
2873.50     58.862   -89.343
2915.30     57.921   -96.692
2957.70     57.912  -102.988
3000.72     58.117  -111.079
3044.37     57.918  -117.644
3088.65     57.611  -121.648
3133.58     57.557  -126.127
3179.16     57.724  -132.238
3225.40     57.977  -139.653
3272.31     58.249  -149.693
3319.91     58.016  -159.978
3368.20     57.634  -167.545
3417.19     57.393  -174.306
3466.89     57.263   178.334
3517.32     56.957   169.772
3568.48     56.473   164.080
3620.39     56.441   159.699
3673.05     56.964   150.339
3726.47     57.186   140.300
3780.67     57.559   134.121
3835.67     58.419   126.267
3891.46     59.006   112.713
3948.06     58.736   101.020
4005.49     58.258    93.841
4063.75     58.299    87.882
4122.86     58.445    79.216
4182.82     58.434    70.519
4243.66     58.309    60.810
4305.39     57.959    49.858
4368.01     57.228    40.342
4431.55     56.381    33.394
4496.01     55.806    29.260
4561.40     55.494    26.004
4627.75     55.152    23.005
4695.06     55.086    17.817
4763.35     54.953    11.070
4832.64     54.861     4.472
4902.93     54.414    -2.107
4974.24     53.840    -6.454
5046.60     53.357    -5.558
5120.00     53.671    -2.624
5194.47     54.455    -4.327
5270.03     55.437    -9.998
5346.68     56.114   -19.635
5424.45     56.232   -28.749
5503.35     55.978   -36.119
5583.40     56.011   -42.580
5664.61     56.082   -50.536
5747.01     56.146   -58.617
5830.60     56.014   -67.121
5915.41     55.808   -78.438
6001.45     55.562   -92.540
6088.74     55.131  -106.428
6177.30     54.535  -118.846
6267.15     53.614  -128.931
6358.31     52.730  -134.455
6450.80     51.990  -137.145
6544.62     51.829  -141.569
6639.82     51.823  -148.346
6736.40     51.935  -154.256
6834.38     52.178  -160.134
6933.79     52.832  -166.593
7034.64     53.352  -173.711
7136.96     53.713   176.247
7240.77     53.902   163.836
7346.09     53.863   150.435
7452.94     53.151   137.462
7561.35     51.875   126.040
7671.33     50.967   123.323
7782.91     50.737   126.063
7896.12     50.979   123.764
8010.97     50.984   115.314
8127.49     50.922   108.967
8245.71     51.065   106.728
8365.65     51.657   101.755
8487.33     52.201    89.658
8610.78     52.290    73.627
8736.03     52.142    58.788
8863.09     52.064    46.539
8992.01     52.012    34.051
9122.80     51.860    21.807
9255.50     51.432    10.114
9390.12     50.908    -1.999
9526.70     50.508   -17.595
9665.27     49.783   -34.540
9805.86     48.313   -51.267
9948.49     45.966   -63.274
10093.2     43.440   -63.978
10240.0     41.875   -54.202
10388.9     43.069   -45.423
10540.1     45.142   -50.216
10693.4     46.324   -63.536
10848.9     46.784   -78.165
11006.7     46.986   -92.778
11166.8     46.609  -108.645
11329.2     45.394  -122.907
11494.0     43.725  -129.667
11661.2     42.582  -129.055
11830.8     42.472  -126.976
12002.9     43.416  -129.220
12177.5     45.024  -136.037
12354.6     46.386  -147.629
12534.3     47.331  -161.661
12716.6     47.747   179.512
12901.6     47.258   158.947
13089.2     45.453   141.946
13279.6     42.855   133.697
13472.8     40.858   133.738
13668.8     39.895   136.967
13867.6     40.050   138.195
14069.3     40.259   134.527
14273.9     39.879   127.030
14481.5     38.477   120.365
14692.2     37.329   120.096
14905.9     36.952   122.954
15122.7     37.735   127.199
15342.7     38.717   127.889
15565.8     39.717   125.680
15792.2     40.467   116.376
16021.9     41.351   103.014
16255.0     41.366    84.748
16491.4     39.983    58.195
16731.3     36.390    13.654
16974.7     32.989   -65.116
17221.6     33.963  -153.862
17472.1     38.108   141.990
17726.2     40.016   112.806
17984.0     40.081    97.526
18245.6     39.691    86.815
18511.0     40.268    75.255
18780.2     40.319    60.515
19053.4     39.168    45.254
19330.5     36.737    36.156
19611.7     33.740    18.866
19897.0     29.796   -34.596
20186.4     27.908  -122.270
20480.0     30.793   162.724
20777.9     34.419   129.709
21080.1     36.566   117.287
21386.7     37.828   104.171
21697.8     39.060    95.163
22013.4     40.051    86.165
22333.6     40.022    71.228
22658.4     38.552    57.364
22988.0     35.529    53.607
23322.4     29.350    29.221
23661.6     33.276    15.636
