Freq[Hz]     dBSPL  Phase[Deg]
5.00000    -14.988   -15.176
5.07273    -14.624   -15.264
5.14651    -14.198   -15.365
5.22137    -13.752   -15.471
5.29732    -13.307   -15.579
5.37437    -12.862   -15.688
5.45254    -12.416   -15.798
5.53185    -11.971   -15.911
5.61231    -11.525   -16.025
5.69394    -11.080   -16.140
5.77676    -10.635   -16.258
5.86079    -10.189   -16.377
5.94604     -9.744   -16.498
6.03252     -9.298   -16.620
6.12027     -8.853   -16.745
6.20929     -8.407   -16.871
6.29961     -7.961   -16.999
6.39124     -7.516   -17.129
6.48420     -7.070   -17.261
6.57851     -6.624   -17.395
6.67420     -6.179   -17.531
6.77128     -5.733   -17.669
6.86977     -5.287   -17.809
6.96969     -4.841   -17.951
7.07107     -4.395   -18.095
7.17392     -3.949   -18.242
7.27827     -3.504   -18.390
7.38413     -3.058   -18.541
7.49154     -2.612   -18.694
7.60050     -2.165   -18.849
7.71105     -1.719   -19.006
7.82321     -1.273   -19.166
7.93701     -0.827   -19.328
8.05245     -0.381   -19.493
8.16958      0.065   -19.660
8.28841      0.512   -19.830
8.40896      0.958   -20.002
8.53128      1.405   -20.177
8.65537      1.851   -20.354
8.78126      2.298   -20.534
8.90899      2.744   -20.717
9.03857      3.191   -20.902
9.17004      3.637   -21.090
9.30342      4.084   -21.281
9.43874      4.531   -21.475
9.57603      4.978   -21.672
9.71532      5.425   -21.872
9.85663      5.872   -22.075
10.0000      6.319   -22.281
10.1455      6.766   -22.490
10.2930      7.213   -22.702
10.4427      7.660   -22.917
10.5946      8.108   -23.136
10.7487      8.555   -23.358
10.9051      9.003   -23.583
11.0637      9.450   -23.812
11.2246      9.898   -24.044
11.3879     10.346   -24.280
11.5535     10.794   -24.520
11.7216     11.242   -24.763
11.8921     11.690   -25.010
12.0650     12.138   -25.260
12.2405     12.586   -25.515
12.4186     13.035   -25.773
12.5992     13.483   -26.036
12.7825     13.932   -26.302
12.9684     14.380   -26.573
13.1570     14.829   -26.848
13.3484     15.278   -27.127
13.5426     15.727   -27.411
13.7395     16.177   -27.699
13.9394     16.626   -27.991
14.1421     17.075   -28.288
14.3478     17.525   -28.590
14.5565     17.975   -28.897
14.7683     18.425   -29.208
14.9831     18.875   -29.524
15.2010     19.325   -29.846
15.4221     19.775   -30.172
15.6464     20.226   -30.504
15.8740     20.676   -30.841
16.1049     21.127   -31.183
16.3392     21.578   -31.531
16.5768     22.029   -31.885
16.8179     22.481   -32.244
17.0626     22.932   -32.609
17.3107     23.384   -32.980
17.5625     23.836   -33.357
17.8180     24.289   -33.741
18.0771     24.741   -34.130
18.3401     25.194   -34.526
18.6068     25.646   -34.929
18.8775     26.100   -35.339
19.1521     26.553   -35.755
19.4306     27.006   -36.178
19.7133     27.460   -36.608
20.0000     27.914   -37.046
20.2909     28.383   -37.464
20.5860     28.928   -37.732
20.8855     29.567   -37.915
21.1893     30.208   -38.708
21.4975     30.752   -40.564
21.8102     31.167   -42.680
22.1274     31.461   -43.657
22.4492     31.695   -43.329
22.7758     32.024   -42.636
23.1071     32.517   -42.283
23.4432     33.093   -42.320
23.7841     33.650   -42.609
24.1301     34.171   -43.174
24.4811     34.665   -43.996
24.8372     35.132   -45.025
25.1984     35.578   -46.128
25.5649     36.020   -47.130
25.9368     36.481   -47.924
26.3141     36.982   -48.579
26.6968     37.523   -49.282
27.0851     38.059   -50.240
27.4791     38.551   -51.462
27.8788     39.004   -52.697
28.2843     39.446   -53.743
28.6957     39.888   -54.728
29.1131     40.337   -55.782
29.5365     40.796   -56.823
29.9661     41.281   -57.756
30.4020     41.797   -58.672
30.8442     42.333   -59.802
31.2929     42.840   -61.181
31.7480     43.289   -62.602
32.2098     43.722   -63.881
32.6783     44.188   -65.045
33.1536     44.683   -66.182
33.6359     45.175   -67.538
34.1251     45.691   -69.023
34.6215     46.256   -70.302
35.1250     46.793   -71.893
35.6359     47.221   -73.938
36.1543     47.555   -75.583
36.6802     47.935   -76.320
37.2137     48.426   -77.289
37.7550     48.986   -79.086
38.3041     49.528   -81.061
38.8613     50.026   -82.741
39.4265     50.490   -84.254
40.0000     50.944   -85.793
40.5818     51.407   -87.333
41.1721     51.891   -88.964
41.7710     52.387   -90.763
42.3785     52.874   -92.614
42.9949     53.340   -94.441
43.6203     53.812   -96.244
44.2548     54.318   -98.061
44.8985     54.832   -99.974
45.5515     55.322  -102.006
46.2141     55.794  -104.060
46.8863     56.283  -106.123
47.5683     56.778  -108.301
48.2602     57.238  -110.511
48.9621     57.674  -112.664
49.6743     58.131  -114.856
50.3968     58.621  -117.193
51.1299     59.108  -119.676
51.8736     59.578  -122.201
52.6281     60.029  -124.732
53.3936     60.472  -127.152
54.1702     60.916  -129.475
54.9581     61.371  -131.924
55.7575     61.821  -134.746
56.5685     62.256  -137.733
57.3914     62.674  -140.633
58.2261     63.086  -143.436
59.0730     63.490  -146.265
59.9323     63.881  -149.164
60.8040     64.272  -152.148
61.6884     64.666  -155.199
62.5857     65.056  -158.249
63.4960     65.429  -161.291
64.4196     65.782  -164.446
65.3566     66.111  -167.784
66.3073     66.423  -171.220
67.2717     66.721  -174.566
68.2502     67.010  -177.784
69.2429     67.288   179.072
70.2501     67.561   175.913
71.2719     67.841   172.700
72.3086     68.117   169.402
73.3603     68.360   165.997
74.4274     68.562   162.556
75.5099     68.755   159.231
76.6083     68.961   156.052
77.7226     69.163   152.892
78.8531     69.346   149.639
80.0000     69.506   146.330
81.1636     69.636   143.071
82.3442     69.740   139.885
83.5419     69.844   136.874
84.7570     69.963   134.016
85.9899     70.090   131.106
87.2406     70.214   128.050
88.5096     70.315   125.033
89.7970     70.390   122.132
91.1031     70.455   119.246
92.4282     70.519   116.386
93.7726     70.576   113.593
95.1366     70.624   110.877
96.5204     70.665   108.187
97.9243     70.695   105.546
99.3486     70.717   102.964
100.794     70.736   100.451
102.260     70.751    97.989
103.747     70.765    95.580
105.256     70.771    93.209
106.787     70.769    90.879
108.340     70.765    88.623
109.916     70.770    86.439
111.515     70.773    84.262
113.137     70.771    82.087
114.783     70.749    79.997
116.452     70.713    77.959
118.146     70.682    76.030
119.865     70.670    74.219
121.608     70.665    72.525
123.377     70.665    70.740
125.171     70.663    68.932
126.992     70.655    67.117
128.839     70.647    65.394
130.713     70.641    63.714
132.615     70.644    62.131
134.543     70.659    60.500
136.500     70.682    58.844
138.486     70.708    57.093
140.500     70.718    55.253
142.544     70.708    53.371
144.617     70.683    51.558
146.721     70.657    49.879
148.855     70.630    48.323
151.020     70.616    46.875
153.217     70.627    45.351
155.445     70.641    43.676
157.706     70.639    41.950
160.000     70.623    40.231
162.327     70.599    38.536
164.688     70.560    36.910
167.084     70.518    35.458
169.514     70.494    34.042
171.980     70.479    32.526
174.481     70.453    30.946
177.019     70.404    29.417
179.594     70.342    28.099
182.206     70.292    27.066
184.856     70.290    26.168
187.545     70.341    25.086
190.273     70.409    23.628
193.041     70.444    21.938
195.849     70.441    20.237
198.697     70.415    18.654
201.587     70.392    17.223
204.520     70.397    15.841
207.494     70.421    14.226
210.512     70.410    12.334
213.574     70.334    10.553
216.681     70.246     9.203
219.833     70.199     7.910
223.030     70.141     6.333
226.274     70.027     4.996
229.565     69.936     4.346
232.905     69.959     3.830
236.292     70.025     2.732
239.729     70.066     1.374
243.216     70.110    -0.093
246.754     70.151    -1.853
250.343     70.124    -3.880
253.984     70.040    -5.628
257.678     69.951    -7.105
261.426     69.860    -8.390
265.229     69.780    -9.522
269.087     69.738   -10.455
273.001     69.765   -11.650
276.972     69.780   -13.242
281.000     69.728   -15.054
285.088     69.606   -16.435
289.234     69.519   -17.304
293.441     69.519   -18.126
297.709     69.565   -19.395
302.040     69.577   -21.113
306.433     69.526   -22.964
310.890     69.415   -24.728
315.412     69.248   -25.887
320.000     69.149   -26.491
324.655     69.165   -27.011
329.377     69.253   -28.248
334.168     69.271   -29.971
339.028     69.251   -31.609
343.959     69.234   -33.004
348.962     69.264   -34.805
354.038     69.242   -37.121
359.188     69.125   -39.491
364.412     68.910   -41.452
369.713     68.665   -42.760
375.090     68.502   -43.253
380.546     68.483   -43.710
386.081     68.514   -45.138
391.697     68.405   -47.057
397.394     68.203   -48.174
403.175     68.157   -48.548
409.039     68.282   -49.821
414.989     68.309   -52.490
421.025     68.062   -55.394
427.149     67.630   -56.915
433.362     67.316   -56.471
439.665     67.289   -55.679
446.060     67.452   -55.883
452.548     67.590   -57.519
459.131     67.623   -60.060
465.809     67.434   -62.375
472.584     67.248   -63.587
479.458     67.141   -65.059
486.432     66.893   -66.359
493.507     66.583   -66.021
500.686     66.615   -64.730
507.968     66.989   -65.500
515.357     67.227   -68.121
522.853     67.202   -71.606
530.458     66.947   -74.329
538.174     66.731   -75.575
546.002     66.665   -77.054
553.943     66.461   -78.732
562.001     66.328   -79.063
570.175     66.480   -79.416
578.469     66.755   -82.847
586.883     66.528   -88.382
595.419     65.803   -92.358
604.080     65.154   -92.776
612.866     64.811   -91.226
621.780     64.706   -88.773
630.824     64.841   -87.808
640.000     65.236   -88.736
649.309     65.415   -92.043
658.753     65.226   -95.003
668.335     65.033   -96.545
678.056     65.028   -97.787
687.919     64.974  -100.263
697.925     64.923  -103.340
708.077     64.842  -106.589
718.376     64.690  -110.605
728.825     64.024  -114.368
739.426     63.427  -113.598
750.181     63.505  -112.109
761.093     63.806  -115.317
772.163     63.413  -121.815
783.394     62.487  -124.997
794.789     61.638  -123.790
806.349     61.328  -121.500
818.078     61.263  -120.689
829.977     61.008  -121.014
842.050     60.903  -118.693
854.298     61.461  -117.794
866.724     61.872  -122.447
879.330     61.441  -128.328
892.120     60.903  -128.465
905.097     60.857  -127.934
918.262     60.802  -131.364
931.618     60.161  -134.276
945.169     59.479  -130.952
958.917     59.529  -127.549
972.864     59.994  -128.911
987.015     60.125  -134.115
1001.37     59.607  -137.408
1015.94     59.070  -135.872
1030.71     58.939  -132.289
1045.71     59.332  -132.235
1060.92     59.677  -138.855
1076.35     59.442  -145.038
1092.00     58.611  -146.569
1107.89     57.538  -145.019
1124.00     57.387  -141.858
1140.35     57.498  -143.056
1156.94     57.116  -144.462
1173.77     57.321  -142.820
1190.84     58.003  -141.793
1208.16     58.123  -144.049
1225.73     57.696  -146.168
1243.56     57.673  -147.307
1261.65     57.795  -147.480
1280.00     58.040  -147.062
1298.62     58.163  -148.665
1317.51     58.083  -154.957
1336.67     57.740  -160.687
1356.11     57.067  -163.933
1375.84     56.280  -161.577
1395.85     56.512  -157.953
1416.15     57.259  -160.208
1436.75     57.445  -166.682
1457.65     56.906  -172.192
1478.85     56.172  -174.572
1500.36     55.506  -175.674
1522.19     55.672  -170.653
1544.33     56.129  -168.858
1566.79     56.360  -170.738
1589.58     56.026  -176.879
1612.70     55.360   179.988
1636.16     54.813   177.866
1659.95     54.363  -179.303
1684.10     54.503  -173.753
1708.60     55.626  -172.066
1733.45     56.755  -179.300
1758.66     56.859   173.475
1784.24     56.170   168.296
1810.19     55.840   164.805
1836.52     55.888   158.683
1863.24     56.020   154.978
1890.34     56.084   153.376
1917.83     56.308   154.635
1945.73     56.276   154.381
1974.03     56.299   149.804
2002.74     56.164   144.299
2031.87     55.988   144.053
2061.43     55.908   148.098
2091.41     56.131   148.169
2121.83     56.177   144.966
2152.69     56.141   140.908
2184.01     56.557   137.602
2215.77     57.050   130.892
2248.00     56.875   124.751
2280.70     56.129   122.150
2313.87     55.807   121.652
2347.53     56.089   118.170
2381.68     56.354   112.355
2416.32     56.317   107.740
2451.46     56.147   105.482
2487.12     55.994   102.091
2523.30     56.084    96.559
2560.00     56.289    91.825
2597.24     56.082    87.780
2635.01     56.004    83.001
2673.34     56.348    77.938
2712.23     56.870    73.369
2751.68     57.029    66.600
2791.70     56.850    57.824
2832.31     56.554    50.280
2873.50     56.427    44.419
2915.30     56.374    37.909
2957.70     56.366    30.522
3000.72     56.241    22.477
3044.37     55.962    15.146
3088.65     55.512     8.979
3133.58     55.461     4.131
3179.16     55.795    -3.002
3225.40     55.872   -14.418
3272.31     55.348   -25.720
3319.91     54.562   -34.885
3368.20     54.037   -40.500
3417.19     53.979   -47.342
3466.89     53.904   -56.602
3517.32     53.703   -65.000
3568.48     53.658   -70.881
3620.39     53.908   -77.819
3673.05     54.380   -90.298
3726.47     54.791  -103.083
3780.67     54.948  -112.857
3835.67     55.099  -121.530
3891.46     55.209  -133.641
3948.06     54.877  -145.029
4005.49     53.892  -155.028
4063.75     53.216  -161.935
4122.86     53.090  -169.462
4182.82     52.614  -176.337
4243.66     51.748   177.488
4305.39     50.819   172.654
4368.01     50.363   169.467
4431.55     50.207   165.570
4496.01     50.642   165.087
4561.40     50.967   162.814
4627.75     51.056   160.428
4695.06     51.604   154.528
4763.35     52.239   145.246
4832.64     52.155   134.845
4902.93     51.587   127.564
4974.24     50.854   123.080
5046.60     50.289   123.991
5120.00     50.436   126.303
5194.47     51.143   128.077
5270.03     52.225   125.703
5346.68     53.158   120.026
5424.45     53.701   112.108
5503.35     53.928   105.887
5583.40     54.385   101.325
5664.61     55.198    94.226
5747.01     55.751    83.937
5830.60     55.800    71.800
5915.41     55.556    62.613
6001.45     55.704    54.464
6088.74     55.774    44.281
6177.30     55.404    34.302
6267.15     54.460    28.341
6358.31     53.902    26.261
6450.80     53.830    22.501
6544.62     53.904    18.056
6639.82     53.596    14.016
6736.40     53.965     9.555
6834.38     54.679     2.383
6933.79     55.192    -5.846
7034.64     55.168   -15.437
7136.96     54.876   -25.453
7240.77     54.187   -29.736
7346.09     53.997   -31.640
7452.94     54.420   -38.865
7561.35     54.184   -51.756
7671.33     53.081   -59.072
7782.91     52.348   -63.430
7896.12     52.107   -70.573
8010.97     51.636   -77.010
8127.49     51.512   -80.375
8245.71     51.601   -85.662
8365.65     51.383   -93.737
8487.33     51.001  -101.582
8610.78     50.166  -111.264
8736.03     48.009  -117.494
8863.09     45.898  -109.579
8992.01     46.625   -94.589
9122.80     48.725   -89.680
9255.50     50.288   -97.654
9390.12     51.638  -110.521
9526.70     52.727  -127.329
9665.27     52.993  -145.855
9805.86     52.618  -161.247
9948.49     52.131  -172.823
10093.2     51.321   176.325
10240.0     50.254   167.600
10388.9     49.590   158.009
10540.1     49.016   145.126
10693.4     46.995   131.393
10848.9     43.366   129.479
11006.7     40.253   150.452
11166.8     41.523   178.740
11329.2     45.713  -166.462
11494.0     49.565  -176.448
11661.2     51.807   161.186
11830.8     52.575   134.863
12002.9     52.317   111.601
12177.5     51.442    90.443
12354.6     49.947    69.144
12534.3     47.471    51.041
12716.6     44.196    45.494
12901.6     41.282    54.188
13089.2     41.200    66.398
13279.6     42.173    66.402
13472.8     42.733    58.433
13668.8     43.096    48.493
13867.6     43.764    35.749
14069.3     44.033    15.621
14273.9     43.381    -8.299
14481.5     41.986   -32.101
14692.2     40.577   -68.762
14905.9     39.498  -127.012
15122.7     39.302   165.915
15342.7     39.874   108.669
15565.8     40.729    65.291
15792.2     40.639    28.639
16021.9     39.778    -0.457
16255.0     37.571   -25.205
16491.4     34.013   -35.454
16731.3     32.228   -26.019
16974.7     33.254   -12.149
17221.6     33.697     3.450
17472.1     34.150    18.443
17726.2     37.094    25.749
17984.0     39.669     8.103
18245.6     40.212   -15.748
18511.0     39.512   -33.332
18780.2     39.259   -41.830
19053.4     39.936   -52.736
19330.5     40.601   -68.317
19611.7     40.345   -88.300
19897.0     39.409  -103.837
20186.4     38.185  -111.703
20480.0     36.953  -113.106
20777.9     35.470  -109.664
21080.1     35.328  -108.704
21386.7     36.657  -115.827
21697.8     38.563  -128.283
22013.4     40.118  -139.020
22333.6     41.359  -152.138
22658.4     41.731  -171.313
22988.0     40.393   169.798
23322.4     35.234   128.834
23661.6     39.503    92.057
