Freq[Hz]     dBSPL  Phase[Deg]
5.00000    -14.764   -14.948
5.07273    -14.401   -15.036
5.14651    -13.975   -15.137
5.22137    -13.531   -15.242
5.29732    -13.088   -15.349
5.37437    -12.644   -15.457
5.45254    -12.200   -15.567
5.53185    -11.756   -15.678
5.61231    -11.312   -15.791
5.69394    -10.868   -15.906
5.77676    -10.424   -16.023
5.86079     -9.980   -16.141
5.94604     -9.536   -16.261
6.03252     -9.092   -16.382
6.12027     -8.648   -16.506
6.20929     -8.204   -16.631
6.29961     -7.760   -16.758
6.39124     -7.316   -16.888
6.48420     -6.872   -17.018
6.57851     -6.428   -17.151
6.67420     -5.983   -17.286
6.77128     -5.539   -17.423
6.86977     -5.095   -17.562
6.96969     -4.650   -17.703
7.07107     -4.206   -17.846
7.17392     -3.762   -17.991
7.27827     -3.317   -18.138
7.38413     -2.873   -18.288
7.49154     -2.428   -18.440
7.60050     -1.984   -18.594
7.71105     -1.539   -18.750
7.82321     -1.095   -18.909
7.93701     -0.650   -19.070
8.05245     -0.205   -19.233
8.16958      0.240   -19.399
8.28841      0.684   -19.567
8.40896      1.129   -19.738
8.53128      1.574   -19.911
8.65537      2.019   -20.087
8.78126      2.464   -20.266
8.90899      2.909   -20.447
9.03857      3.354   -20.631
9.17004      3.800   -20.818
9.30342      4.245   -21.007
9.43874      4.690   -21.200
9.57603      5.135   -21.395
9.71532      5.581   -21.593
9.85663      6.026   -21.795
10.0000      6.472   -21.999
10.1455      6.918   -22.206
10.2930      7.363   -22.417
10.4427      7.809   -22.631
10.5946      8.255   -22.848
10.7487      8.701   -23.068
10.9051      9.147   -23.292
11.0637      9.593   -23.519
11.2246     10.039   -23.749
11.3879     10.486   -23.983
11.5535     10.932   -24.221
11.7216     11.378   -24.462
11.8921     11.825   -24.707
12.0650     12.272   -24.956
12.2405     12.718   -25.209
12.4186     13.165   -25.465
12.5992     13.612   -25.726
12.7825     14.059   -25.990
12.9684     14.507   -26.259
13.1570     14.954   -26.532
13.3484     15.401   -26.809
13.5426     15.849   -27.090
13.7395     16.297   -27.376
13.9394     16.744   -27.667
14.1421     17.192   -27.961
14.3478     17.640   -28.261
14.5565     18.089   -28.565
14.7683     18.537   -28.874
14.9831     18.986   -29.188
15.2010     19.434   -29.507
15.4221     19.883   -29.831
15.6464     20.332   -30.160
15.8740     20.781   -30.495
16.1049     21.231   -30.835
16.3392     21.680   -31.180
16.5768     22.130   -31.531
16.8179     22.580   -31.888
17.0626     23.030   -32.250
17.3107     23.480   -32.619
17.5625     23.931   -32.993
17.8180     24.381   -33.373
18.0771     24.832   -33.760
18.3401     25.284   -34.154
18.6068     25.735   -34.553
18.8775     26.187   -34.960
19.1521     26.638   -35.373
19.4306     27.090   -35.793
19.7133     27.543   -36.220
20.0000     27.995   -36.655
20.2909     28.462   -37.069
20.5860     29.007   -37.335
20.8855     29.648   -37.518
21.1893     30.295   -38.333
21.4975     30.848   -40.240
21.8102     31.267   -42.414
22.1274     31.551   -43.417
22.4492     31.764   -43.074
22.7758     32.077   -42.342
23.1071     32.570   -41.943
23.4432     33.156   -41.934
23.7841     33.724   -42.186
24.1301     34.249   -42.744
24.4811     34.739   -43.594
24.8372     35.200   -44.659
25.1984     35.644   -45.766
25.5649     36.088   -46.748
25.9368     36.550   -47.517
26.3141     37.050   -48.153
26.6968     37.589   -48.844
27.0851     38.125   -49.793
27.4791     38.620   -51.010
27.8788     39.075   -52.245
28.2843     39.516   -53.298
28.6957     39.956   -54.289
29.1131     40.402   -55.343
29.5365     40.860   -56.376
29.9661     41.343   -57.299
30.4020     41.858   -58.201
30.8442     42.392   -59.305
31.2929     42.898   -60.650
31.7480     43.346   -62.050
32.2098     43.781   -63.324
32.6783     44.248   -64.488
33.1536     44.739   -65.627
33.6359     45.226   -66.971
34.1251     45.741   -68.403
34.6215     46.309   -69.593
35.1250     46.851   -71.117
35.6359     47.291   -73.148
36.1543     47.639   -74.833
36.6802     48.023   -75.643
37.2137     48.506   -76.682
37.7550     49.056   -78.500
38.3041     49.593   -80.429
38.8613     50.089   -82.052
39.4265     50.554   -83.525
40.0000     51.011   -85.042
40.5818     51.478   -86.567
41.1721     51.964   -88.193
41.7710     52.464   -89.988
42.3785     52.955   -91.839
42.9949     53.424   -93.687
43.6203     53.895   -95.532
44.2548     54.394   -97.376
44.8985     54.902   -99.276
45.5515     55.386  -101.267
46.2141     55.858  -103.282
46.8863     56.349  -105.320
47.5683     56.844  -107.484
48.2602     57.304  -109.674
48.9621     57.741  -111.803
49.6743     58.198  -113.982
50.3968     58.689  -116.308
51.1299     59.178  -118.774
51.8736     59.649  -121.283
52.6281     60.101  -123.807
53.3936     60.545  -126.215
54.1702     60.992  -128.525
54.9581     61.449  -130.978
55.7575     61.898  -133.820
56.5685     62.329  -136.818
57.3914     62.745  -139.705
58.2261     63.155  -142.480
59.0730     63.558  -145.286
59.9323     63.950  -148.173
60.8040     64.339  -151.150
61.6884     64.730  -154.189
62.5857     65.118  -157.218
63.4960     65.488  -160.235
64.4196     65.838  -163.353
65.3566     66.168  -166.638
66.3073     66.484  -170.030
67.2717     66.787  -173.358
68.2502     67.078  -176.572
69.2429     67.358  -179.707
70.2501     67.632   177.139
71.2719     67.910   173.931
72.3086     68.183   170.646
73.3603     68.426   167.257
74.4274     68.629   163.827
75.5099     68.821   160.514
76.6083     69.024   157.359
77.7226     69.224   154.233
78.8531     69.409   151.013
80.0000     69.570   147.730
81.1636     69.701   144.492
82.3442     69.809   141.320
83.5419     69.915   138.301
84.7570     70.032   135.427
85.9899     70.153   132.525
87.2406     70.270   129.504
88.5096     70.368   126.531
89.7970     70.443   123.673
91.1031     70.508   120.822
92.4282     70.571   117.988
93.7726     70.627   115.225
95.1366     70.675   112.551
96.5204     70.716   109.901
97.9243     70.747   107.287
99.3486     70.769   104.727
100.794     70.787   102.239
102.260     70.800    99.809
103.747     70.813    97.436
105.256     70.818    95.099
106.787     70.813    92.804
108.340     70.806    90.597
109.916     70.809    88.476
111.515     70.813    86.366
113.137     70.812    84.256
114.783     70.793    82.245
116.452     70.766    80.297
118.146     70.750    78.426
119.865     70.755    76.582
121.608     70.758    74.800
123.377     70.751    72.951
125.171     70.739    71.143
126.992     70.725    69.367
128.839     70.716    67.700
130.713     70.713    66.065
132.615     70.724    64.484
134.543     70.743    62.792
136.500     70.758    61.035
138.486     70.762    59.226
140.500     70.745    57.439
142.544     70.715    55.705
144.617     70.681    54.062
146.721     70.655    52.535
148.855     70.632    51.104
151.020     70.625    49.754
153.217     70.641    48.283
155.445     70.654    46.653
157.706     70.647    45.011
160.000     70.633    43.426
162.327     70.617    41.871
164.688     70.592    40.341
167.084     70.565    38.939
169.514     70.553    37.528
171.980     70.545    36.035
174.481     70.529    34.492
177.019     70.495    32.959
179.594     70.442    31.556
182.206     70.386    30.452
184.856     70.375    29.550
187.545     70.423    28.480
190.273     70.487    26.986
193.041     70.508    25.262
195.849     70.486    23.603
198.697     70.446    22.164
201.587     70.425    20.870
204.520     70.436    19.543
207.494     70.459    17.934
210.512     70.438    16.099
213.574     70.356    14.404
216.681     70.265    13.159
219.833     70.218    12.016
223.030     70.178    10.613
226.274     70.098     9.293
229.565     70.028     8.387
232.905     70.028     7.608
236.292     70.058     6.455
239.729     70.070     5.161
243.216     70.081     3.791
246.754     70.091     2.314
250.343     70.073     0.590
253.984     70.008    -1.098
257.678     69.917    -2.610
261.426     69.817    -3.806
265.229     69.729    -4.907
269.087     69.653    -5.777
273.001     69.649    -6.675
276.972     69.682    -7.887
281.000     69.669    -9.625
285.088     69.559   -11.166
289.234     69.446   -12.193
293.441     69.387   -12.999
297.709     69.372   -13.907
302.040     69.376   -15.075
306.433     69.358   -16.522
310.890     69.280   -18.037
315.412     69.154   -19.133
320.000     69.081   -19.835
324.655     69.074   -20.510
329.377     69.099   -21.541
334.168     69.100   -22.814
339.028     69.092   -24.132
343.959     69.102   -25.301
348.962     69.146   -26.843
354.038     69.167   -28.790
359.188     69.104   -31.058
364.412     68.943   -33.124
369.713     68.721   -34.605
375.090     68.578   -35.343
380.546     68.534   -36.182
386.081     68.488   -37.741
391.697     68.304   -39.169
397.394     68.108   -39.745
403.175     68.092   -39.914
409.039     68.211   -41.161
414.989     68.214   -43.552
421.025     67.961   -45.920
427.149     67.608   -46.665
433.362     67.439   -46.165
439.665     67.504   -45.971
446.060     67.658   -47.020
452.548     67.727   -49.273
459.131     67.625   -52.040
465.809     67.309   -53.662
472.584     67.104   -53.827
479.458     67.074   -54.740
486.432     66.928   -56.131
493.507     66.681   -56.471
500.686     66.598   -56.002
507.968     66.704   -56.474
515.357     66.822   -57.315
522.853     66.930   -59.178
530.458     66.890   -61.469
538.174     66.765   -63.049
546.002     66.672   -64.374
553.943     66.539   -65.703
562.001     66.542   -66.104
570.175     66.768   -66.901
578.469     67.029   -70.770
586.883     66.746   -76.580
595.419     65.940   -80.057
604.080     65.303   -79.572
612.866     65.126   -77.897
621.780     65.147   -76.691
630.824     65.217   -76.696
640.000     65.468   -77.751
649.309     65.520   -80.722
658.753     65.304   -83.208
668.335     65.105   -83.798
678.056     65.105   -83.991
687.919     65.136   -85.768
697.925     65.150   -88.711
708.077     65.056   -91.460
718.376     64.868   -94.107
728.825     64.420   -95.280
739.426     64.331   -94.352
750.181     64.775   -94.767
761.093     65.136   -99.592
772.163     64.875  -105.510
783.394     64.287  -109.285
794.789     63.711  -110.928
806.349     63.159  -110.822
818.078     62.997  -109.443
829.977     62.939  -109.174
842.050     62.801  -109.223
854.298     62.856  -109.193
866.724     63.157  -110.084
879.330     63.403  -112.570
892.120     63.502  -114.671
905.097     63.557  -117.429
918.262     63.574  -122.584
931.618     63.146  -128.145
945.169     62.277  -129.412
958.917     61.449  -127.914
972.864     61.255  -125.918
987.015     61.694  -125.631
1001.37     62.070  -128.995
1015.94     61.885  -134.693
1030.71     61.131  -138.010
1045.71     60.489  -138.708
1060.92     60.041  -140.931
1076.35     59.148  -142.692
1092.00     58.253  -137.980
1107.89     58.121  -131.710
1124.00     59.009  -127.261
1140.35     60.045  -129.334
1156.94     60.432  -132.466
1173.77     60.719  -136.728
1190.84     60.820  -141.449
1208.16     60.582  -145.246
1225.73     60.408  -146.560
1243.56     60.705  -148.572
1261.65     60.674  -153.708
1280.00     60.319  -155.182
1298.62     60.325  -155.769
1317.51     60.538  -160.419
1336.67     60.114  -166.672
1356.11     59.274  -169.931
1375.84     58.187  -171.609
1395.85     57.521  -168.077
1416.15     57.300  -161.732
1436.75     57.750  -156.026
1457.65     58.636  -157.373
1478.85     59.183  -162.985
1500.36     59.040  -170.201
1522.19     58.197  -174.281
1544.33     57.528  -175.749
1566.79     57.127  -175.333
1589.58     56.875  -174.002
1612.70     56.782  -169.770
1636.16     57.307  -167.156
1659.95     57.988  -169.081
1684.10     58.849  -176.374
1708.60     59.193   174.057
1733.45     58.985   165.555
1758.66     57.579   162.250
1784.24     56.174   167.136
1810.19     55.656   172.036
1836.52     56.690   173.138
1863.24     57.816   171.425
1890.34     58.098   166.207
1917.83     57.860   158.612
1945.73     57.501   155.590
1974.03     57.385   154.954
2002.74     57.380   153.759
2031.87     57.457   150.521
2061.43     57.573   148.200
2091.41     57.737   141.134
2121.83     57.345   131.153
2152.69     56.060   123.685
2184.01     54.754   122.246
2215.77     55.152   125.620
2248.00     56.437   126.094
2280.70     57.338   117.443
2313.87     56.544   100.315
2347.53     54.479    89.351
2381.68     52.309    95.211
2416.32     52.135   107.264
2451.46     52.405   106.893
2487.12     51.606    98.028
2523.30     50.016    98.686
2560.00     49.604   117.909
2597.24     50.932   129.658
2635.01     51.482   124.589
2673.34     50.421   112.450
2712.23     48.407   111.882
2751.68     48.007   109.764
2791.70     48.553    99.701
2832.31     49.058    93.141
2873.50     48.973    94.363
2915.30     48.771    92.193
2957.70     47.599    82.820
3000.72     45.977    80.599
3044.37     44.945    79.506
3088.65     43.011    71.746
3133.58     39.639    55.396
3179.16     35.860    22.353
3225.40     34.983   -19.374
3272.31     34.927   -56.981
3319.91     35.534   -95.226
3368.20     37.620   -87.627
3417.19     41.121   -89.405
3466.89     41.111   -99.675
3517.32     41.974  -108.321
3568.48     42.972  -107.156
3620.39     44.886  -115.082
3673.05     46.261  -136.713
3726.47     47.853  -146.448
3780.67     48.344  -154.705
3835.67     47.737  -162.373
3891.46     45.372  -177.577
3948.06     39.288   163.359
4005.49     30.542   -68.760
4063.75     44.334   -72.374
4122.86     47.123   -80.214
4182.82     48.580   -84.957
4243.66     49.204   -88.512
4305.39     49.732   -88.081
4368.01     50.838   -87.368
4431.55     52.354   -89.226
4496.01     53.533   -92.006
4561.40     54.215   -96.763
4627.75     54.523  -102.206
4695.06     54.851  -105.771
4763.35     55.144  -109.589
4832.64     55.038  -115.096
4902.93     54.097  -121.513
4974.24     52.691  -121.633
5046.60     51.707  -116.162
5120.00     51.526  -112.732
5194.47     51.571  -113.765
5270.03     51.902  -117.932
5346.68     51.751  -121.736
5424.45     51.115  -125.458
5503.35     49.597  -125.384
5583.40     48.348  -117.486
5664.61     48.190  -108.600
5747.01     48.749  -108.526
5830.60     48.058  -124.661
5915.41     45.569  -170.408
6001.45     43.444   104.367
6088.74     44.683    12.404
6177.30     47.351   -49.760
6267.15     48.401   -77.419
6358.31     47.734   -91.925
6450.80     46.625   -96.733
6544.62     46.313   -98.306
6639.82     46.651  -106.731
6736.40     46.186  -126.947
6834.38     44.703  -148.061
6933.79     42.405  -175.285
7034.64     41.402   135.408
7136.96     41.816    67.311
7240.77     42.033    11.113
7346.09     40.993   -12.313
7452.94     40.095   -10.999
7561.35     39.560    -7.172
7671.33     38.719    -5.020
7782.91     39.620     5.054
7896.12     41.988    18.637
8010.97     43.609    28.354
8127.49     44.201    37.205
8245.71     44.694    46.530
8365.65     44.494    47.049
8487.33     42.888    50.220
8610.78     42.526    60.756
8736.03     44.612    73.526
8863.09     47.288    80.696
8992.01     48.896    82.025
9122.80     49.480    74.269
9255.50     48.696    66.329
9390.12     46.971    70.051
9526.70     45.182    76.868
9665.27     43.861    78.127
9805.86     42.866    64.555
9948.49     41.652    41.389
10093.2     40.407    61.515
10240.0     38.411   125.374
10388.9     36.884   176.846
10540.1     36.271   172.316
10693.4     36.626   164.357
10848.9     37.163   157.635
11006.7     37.888   130.703
11166.8     38.655    83.220
11329.2     38.447    47.466
11494.0     38.079    27.721
11661.2     38.680    25.642
11830.8     40.479    25.544
12002.9     42.017    22.655
12177.5     42.637    17.383
12354.6     42.980    19.294
12534.3     43.673    19.674
12716.6     44.147    16.114
12901.6     44.297    12.451
13089.2     44.041    10.641
13279.6     42.952    11.631
13472.8     41.608    18.961
13668.8     41.092    30.649
13867.6     41.143    43.813
14069.3     41.633    57.434
14273.9     42.146    66.384
14481.5     42.226    76.239
14692.2     42.278    89.277
14905.9     42.493   103.396
15122.7     42.433   110.597
15342.7     41.136   115.307
15565.8     40.643   128.927
15792.2     41.151   149.054
16021.9     41.925   165.423
16255.0     41.033   169.996
16491.4     38.435   175.047
16731.3     35.565  -159.102
16974.7     34.196  -118.292
17221.6     35.165   -84.041
17472.1     36.063   -76.481
17726.2     37.390   -68.222
17984.0     38.053   -54.117
18245.6     37.726   -41.240
18511.0     35.545   -26.622
18780.2     35.163     1.609
19053.4     36.437    20.628
19330.5     36.793     6.326
19611.7     33.951   -44.246
19897.0     29.800  -111.668
20186.4     26.052  -159.050
20480.0     24.454  -155.973
20777.9     26.040  -133.326
21080.1     28.439  -129.358
21386.7     30.059  -135.055
21697.8     31.674  -120.409
22013.4     33.908  -104.808
22333.6     34.238   -92.954
22658.4     31.925   -75.481
22988.0     29.843   -47.538
23322.4     27.488   -53.537
23661.6     35.091   -65.209
