Freq[Hz]     dBSPL  Phase[Deg]
5.00000    -14.785   -15.548
5.07273    -14.422   -15.635
5.14651    -13.997   -15.734
5.22137    -13.553   -15.837
5.29732    -13.109   -15.942
5.37437    -12.665   -16.049
5.45254    -12.221   -16.157
5.53185    -11.777   -16.267
5.61231    -11.333   -16.378
5.69394    -10.889   -16.491
5.77676    -10.445   -16.606
5.86079    -10.001   -16.722
5.94604     -9.556   -16.840
6.03252     -9.112   -16.960
6.12027     -8.668   -17.082
6.20929     -8.224   -17.205
6.29961     -7.780   -17.330
6.39124     -7.335   -17.457
6.48420     -6.891   -17.586
6.57851     -6.447   -17.717
6.67420     -6.003   -17.850
6.77128     -5.558   -17.984
6.86977     -5.114   -18.121
6.96969     -4.669   -18.260
7.07107     -4.225   -18.401
7.17392     -3.780   -18.544
7.27827     -3.336   -18.689
7.38413     -2.891   -18.836
7.49154     -2.447   -18.985
7.60050     -2.002   -19.137
7.71105     -1.557   -19.291
7.82321     -1.113   -19.447
7.93701     -0.668   -19.605
8.05245     -0.223   -19.766
8.16958      0.222   -19.930
8.28841      0.667   -20.095
8.40896      1.112   -20.263
8.53128      1.557   -20.434
8.65537      2.002   -20.607
8.78126      2.447   -20.783
8.90899      2.892   -20.962
9.03857      3.337   -21.143
9.17004      3.783   -21.327
9.30342      4.228   -21.514
9.43874      4.674   -21.703
9.57603      5.119   -21.895
9.71532      5.565   -22.091
9.85663      6.010   -22.289
10.0000      6.456   -22.490
10.1455      6.902   -22.694
10.2930      7.347   -22.902
10.4427      7.793   -23.112
10.5946      8.239   -23.326
10.7487      8.685   -23.543
10.9051      9.131   -23.763
11.0637      9.578   -23.987
11.2246     10.024   -24.214
11.3879     10.470   -24.444
11.5535     10.917   -24.678
11.7216     11.363   -24.916
11.8921     11.810   -25.157
12.0650     12.257   -25.402
12.2405     12.704   -25.651
12.4186     13.151   -25.904
12.5992     13.598   -26.160
12.7825     14.045   -26.421
12.9684     14.492   -26.685
13.1570     14.940   -26.954
13.3484     15.387   -27.227
13.5426     15.835   -27.504
13.7395     16.283   -27.786
13.9394     16.731   -28.072
14.1421     17.179   -28.362
14.3478     17.627   -28.657
14.5565     18.075   -28.957
14.7683     18.524   -29.261
14.9831     18.973   -29.570
15.2010     19.421   -29.885
15.4221     19.870   -30.204
15.6464     20.319   -30.528
15.8740     20.769   -30.858
16.1049     21.218   -31.193
16.3392     21.668   -31.533
16.5768     22.118   -31.879
16.8179     22.568   -32.230
17.0626     23.018   -32.587
17.3107     23.468   -32.950
17.5625     23.919   -33.319
17.8180     24.370   -33.694
18.0771     24.821   -34.075
18.3401     25.272   -34.463
18.6068     25.724   -34.857
18.8775     26.175   -35.257
19.1521     26.627   -35.664
19.4306     27.079   -36.078
19.7133     27.532   -36.500
20.0000     27.985   -36.928
20.2909     28.451   -37.341
20.5860     28.991   -37.638
20.8855     29.621   -37.888
21.1893     30.253   -38.752
21.4975     30.789   -40.637
21.8102     31.197   -42.737
22.1274     31.483   -43.666
22.4492     31.710   -43.276
22.7758     32.037   -42.536
23.1071     32.538   -42.161
23.4432     33.123   -42.175
23.7841     33.685   -42.424
24.1301     34.207   -42.977
24.4811     34.700   -43.849
24.8372     35.163   -44.944
25.1984     35.606   -46.062
25.5649     36.047   -47.033
25.9368     36.509   -47.787
26.3141     37.012   -48.424
26.6968     37.551   -49.138
27.0851     38.085   -50.110
27.4791     38.580   -51.331
27.8788     39.037   -52.568
28.2843     39.480   -53.640
28.6957     39.917   -54.661
29.1131     40.359   -55.730
29.5365     40.814   -56.757
29.9661     41.296   -57.670
30.4020     41.810   -58.573
30.8442     42.342   -59.674
31.2929     42.849   -61.002
31.7480     43.301   -62.393
32.2098     43.740   -63.681
32.6783     44.207   -64.869
33.1536     44.693   -66.028
33.6359     45.178   -67.375
34.1251     45.698   -68.816
34.6215     46.270   -70.046
35.1250     46.804   -71.602
35.6359     47.231   -73.620
36.1543     47.574   -75.263
36.6802     47.965   -76.018
37.2137     48.456   -76.989
37.7550     49.011   -78.769
38.3041     49.556   -80.741
38.8613     50.059   -82.440
39.4265     50.526   -83.975
40.0000     50.978   -85.522
40.5818     51.442   -87.053
41.1721     51.926   -88.675
41.7710     52.427   -90.456
42.3785     52.925   -92.302
42.9949     53.402   -94.188
43.6203     53.874   -96.113
44.2548     54.366   -98.028
44.8985     54.862   -99.946
45.5515     55.341  -101.915
46.2141     55.812  -103.904
46.8863     56.304  -105.936
47.5683     56.800  -108.113
48.2602     57.260  -110.317
48.9621     57.695  -112.452
49.6743     58.152  -114.618
50.3968     58.643  -116.945
51.1299     59.132  -119.421
51.8736     59.604  -121.944
52.6281     60.056  -124.465
53.3936     60.501  -126.868
54.1702     60.951  -129.187
54.9581     61.412  -131.673
55.7575     61.860  -134.555
56.5685     62.287  -137.575
57.3914     62.699  -140.460
58.2261     63.110  -143.230
59.0730     63.514  -146.040
59.9323     63.906  -148.936
60.8040     64.295  -151.915
61.6884     64.688  -154.948
62.5857     65.080  -157.981
63.4960     65.457  -161.023
64.4196     65.809  -164.201
65.3566     66.133  -167.548
66.3073     66.438  -170.953
67.2717     66.737  -174.242
68.2502     67.033  -177.415
69.2429     67.321   179.451
70.2501     67.603   176.260
71.2719     67.882   172.983
72.3086     68.149   169.642
73.3603     68.383   166.248
74.4274     68.584   162.848
75.5099     68.780   159.542
76.6083     68.988   156.357
77.7226     69.190   153.188
78.8531     69.372   149.938
80.0000     69.531   146.645
81.1636     69.662   143.401
82.3442     69.772   140.205
83.5419     69.880   137.145
84.7570     69.994   134.227
85.9899     70.110   131.298
87.2406     70.222   128.269
88.5096     70.317   125.299
89.7970     70.390   122.440
91.1031     70.456   119.583
92.4282     70.518   116.748
93.7726     70.574   113.986
95.1366     70.623   111.306
96.5204     70.665   108.643
97.9243     70.697   106.013
99.3486     70.721   103.435
100.794     70.740   100.923
102.260     70.754    98.465
103.747     70.767    96.062
105.256     70.769    93.696
106.787     70.761    91.386
108.340     70.752    89.183
109.916     70.757    87.069
111.515     70.763    84.953
113.137     70.764    82.831
114.783     70.750    80.809
116.452     70.729    78.825
118.146     70.716    76.886
119.865     70.718    74.974
121.608     70.716    73.155
123.377     70.707    71.286
125.171     70.695    69.450
126.992     70.679    67.640
128.839     70.667    65.932
130.713     70.659    64.250
132.615     70.659    62.644
134.543     70.669    60.985
136.500     70.682    59.292
138.486     70.689    57.537
140.500     70.679    55.774
142.544     70.660    54.045
144.617     70.639    52.391
146.721     70.629    50.807
148.855     70.619    49.238
151.020     70.610    47.706
153.217     70.610    46.103
155.445     70.601    44.434
157.706     70.578    42.823
160.000     70.557    41.302
162.327     70.544    39.790
164.688     70.525    38.270
167.084     70.500    36.840
169.514     70.482    35.425
171.980     70.474    33.975
174.481     70.469    32.485
177.019     70.455    30.933
179.594     70.416    29.410
182.206     70.359    28.132
184.856     70.330    27.116
187.545     70.359    26.063
190.273     70.416    24.666
193.041     70.446    23.007
195.849     70.435    21.362
198.697     70.406    19.903
201.587     70.397    18.589
204.520     70.425    17.204
207.494     70.461    15.483
210.512     70.448    13.473
213.574     70.358    11.593
216.681     70.244    10.224
219.833     70.178     9.127
223.030     70.153     7.817
226.274     70.098     6.368
229.565     70.019     5.221
232.905     69.984     4.353
236.292     69.994     3.269
239.729     70.000     2.006
243.216     70.001     0.673
246.754     70.005    -0.711
250.343     69.994    -2.366
253.984     69.932    -4.031
257.678     69.840    -5.447
261.426     69.754    -6.450
265.229     69.726    -7.309
269.087     69.751    -8.424
273.001     69.782   -10.101
276.972     69.737   -11.966
281.000     69.626   -13.588
285.088     69.505   -14.664
289.234     69.437   -15.483
293.441     69.426   -16.359
297.709     69.437   -17.511
302.040     69.430   -18.904
306.433     69.388   -20.399
310.890     69.317   -21.706
315.412     69.262   -22.706
320.000     69.270   -23.787
324.655     69.301   -25.261
329.377     69.276   -27.136
334.168     69.175   -28.857
339.028     69.064   -30.061
343.959     69.027   -30.822
348.962     69.086   -32.050
354.038     69.148   -34.083
359.188     69.092   -36.769
364.412     68.862   -39.082
369.713     68.587   -40.252
375.090     68.460   -40.782
380.546     68.427   -41.789
386.081     68.347   -43.409
391.697     68.172   -44.621
397.394     68.000   -45.325
403.175     67.960   -45.729
409.039     68.026   -46.898
414.989     68.026   -48.981
421.025     67.793   -51.256
427.149     67.459   -52.182
433.362     67.257   -51.877
439.665     67.268   -51.447
446.060     67.415   -52.026
452.548     67.518   -54.023
459.131     67.438   -56.614
465.809     67.136   -57.920
472.584     66.995   -57.613
479.458     67.081   -58.043
486.432     67.183   -59.285
493.507     67.212   -60.815
500.686     67.227   -62.689
507.968     67.190   -65.349
515.357     67.049   -67.465
522.853     66.888   -69.468
530.458     66.638   -71.319
538.174     66.359   -71.837
546.002     66.285   -71.994
553.943     66.282   -72.681
562.001     66.363   -73.484
570.175     66.488   -74.681
578.469     66.728   -78.469
586.883     66.503   -84.308
595.419     65.753   -88.296
604.080     64.933   -88.656
612.866     64.563   -86.052
621.780     64.680   -83.275
630.824     65.060   -83.536
640.000     65.273   -87.241
649.309     64.986   -91.272
658.753     64.512   -92.872
668.335     64.229   -92.653
678.056     64.165   -91.846
687.919     64.258   -92.115
697.925     64.461   -94.858
708.077     64.417   -99.133
718.376     64.146  -103.038
728.825     63.592  -105.481
739.426     63.172  -105.736
750.181     62.996  -106.426
761.093     62.827  -109.035
772.163     62.297  -111.754
783.394     61.646  -112.148
794.789     61.169  -110.552
806.349     61.000  -109.093
818.078     61.072  -108.730
829.977     60.874  -109.060
842.050     60.823  -106.547
854.298     61.431  -105.592
866.724     61.913  -110.555
879.330     61.502  -117.076
892.120     60.958  -118.103
905.097     60.814  -117.790
918.262     60.672  -120.932
931.618     60.009  -124.329
945.169     59.315  -121.134
958.917     59.062  -115.944
972.864     59.627  -114.667
987.015     60.031  -119.813
1001.37     59.681  -124.265
1015.94     58.981  -122.406
1030.71     58.871  -117.459
1045.71     59.409  -116.075
1060.92     59.785  -122.069
1076.35     59.587  -128.532
1092.00     58.934  -128.402
1107.89     58.362  -124.242
1124.00     58.534  -122.616
1140.35     58.577  -127.616
1156.94     58.091  -128.089
1173.77     58.235  -125.489
1190.84     58.815  -126.096
1208.16     58.958  -129.689
1225.73     58.716  -131.681
1243.56     58.602  -134.603
1261.65     58.360  -136.700
1280.00     58.110  -135.391
1298.62     58.245  -132.364
1317.51     58.691  -136.353
1336.67     58.806  -144.555
1356.11     58.151  -149.107
1375.84     57.182  -146.820
1395.85     56.955  -144.769
1416.15     57.008  -145.255
1436.75     57.056  -145.601
1457.65     57.129  -147.239
1478.85     56.862  -149.366
1500.36     56.445  -149.486
1522.19     56.729  -145.225
1544.33     57.358  -141.960
1566.79     58.202  -143.034
1589.58     58.649  -150.396
1612.70     58.765  -156.803
1636.16     58.466  -160.420
1659.95     58.417  -163.376
1684.10     58.324  -164.546
1708.60     58.494  -163.996
1733.45     59.073  -166.884
1758.66     59.385  -175.390
1784.24     58.905   175.744
1810.19     58.112   173.072
1836.52     57.479   174.777
1863.24     57.622   176.514
1890.34     58.770   174.541
1917.83     59.868   168.599
1945.73     59.860   161.757
1974.03     59.423   155.852
2002.74     59.346   150.086
2031.87     59.051   144.665
2061.43     58.377   144.623
2091.41     57.733   146.735
2121.83     57.303   146.121
2152.69     57.164   143.479
2184.01     57.601   142.606
2215.77     58.139   139.168
2248.00     58.113   131.590
2280.70     57.568   128.189
2313.87     57.150   129.198
2347.53     57.459   127.186
2381.68     57.685   118.118
2416.32     57.571   110.880
2451.46     57.321   108.282
2487.12     57.441   106.569
2523.30     57.418   101.488
2560.00     57.263    97.669
2597.24     57.101    94.400
2635.01     57.165    89.465
2673.34     57.284    82.220
2712.23     57.322    77.856
2751.68     57.355    75.089
2791.70     57.522    69.287
2832.31     57.513    60.652
2873.50     57.163    53.074
2915.30     56.785    47.749
2957.70     56.711    43.027
3000.72     57.003    36.840
3044.37     57.148    27.888
3088.65     56.910    18.885
3133.58     56.425    10.792
3179.16     55.781     2.718
3225.40     55.104    -3.617
3272.31     54.872    -6.703
3319.91     54.960   -10.940
3368.20     54.872   -17.633
3417.19     54.753   -23.036
3466.89     55.044   -29.824
3517.32     55.125   -38.981
3568.48     54.916   -48.922
3620.39     54.693   -57.141
3673.05     54.845   -66.632
3726.47     55.192   -76.252
3780.67     55.544   -86.678
3835.67     55.299   -97.518
3891.46     54.614  -107.591
3948.06     53.912  -115.227
4005.49     53.294  -119.970
4063.75     52.495  -123.672
4122.86     52.015  -127.515
4182.82     52.051  -127.978
4243.66     52.291  -129.889
4305.39     52.225  -131.529
4368.01     52.104  -132.914
4431.55     52.789  -133.552
4496.01     54.005  -139.359
4561.40     54.650  -146.693
4627.75     54.839  -154.858
4695.06     55.010  -163.943
4763.35     55.231  -171.802
4832.64     55.163   179.831
4902.93     54.646   172.841
4974.24     54.071   168.268
5046.60     54.042   168.095
5120.00     54.751   167.259
5194.47     55.534   163.069
5270.03     56.057   156.380
5346.68     56.390   149.150
5424.45     56.711   141.769
5503.35     56.858   134.192
5583.40     56.963   126.432
5664.61     57.007   118.972
5747.01     57.030   110.490
5830.60     56.806   101.333
5915.41     56.476    92.658
6001.45     56.061    83.744
6088.74     55.681    77.327
6177.30     55.307    71.250
6267.15     55.129    66.408
6358.31     54.857    59.995
6450.80     54.231    56.433
6544.62     53.636    53.406
6639.82     53.698    50.695
6736.40     53.755    44.468
6834.38     53.055    38.825
6933.79     51.746    34.904
7034.64     50.956    35.309
7136.96     50.721    37.033
7240.77     50.913    37.864
7346.09     51.768    35.097
7452.94     52.862    27.975
7561.35     53.136    17.897
7671.33     53.059     8.422
7782.91     53.186     3.025
7896.12     53.071     0.862
8010.97     52.423    -1.886
8127.49     52.096    -6.714
8245.71     52.467   -11.231
8365.65     52.940   -14.041
8487.33     53.007   -17.892
8610.78     52.788   -26.170
8736.03     52.781   -37.002
8863.09     52.707   -47.499
8992.01     52.161   -55.215
9122.80     51.319   -59.814
9255.50     50.711   -61.672
9390.12     50.643   -61.295
9526.70     50.658   -62.426
9665.27     50.806   -68.243
9805.86     50.844   -76.533
9948.49     50.980   -83.545
10093.2     51.126   -91.978
10240.0     51.339  -104.704
10388.9     50.968  -121.036
10540.1     49.530  -135.152
10693.4     47.384  -141.495
10848.9     45.371  -140.445
11006.7     43.829  -133.456
11166.8     44.043  -125.566
11329.2     45.567  -124.420
11494.0     46.788  -133.667
11661.2     46.414  -147.002
11830.8     45.042  -152.043
12002.9     44.353  -147.864
12177.5     45.699  -142.412
12354.6     48.069  -148.160
12534.3     49.689  -163.338
12716.6     50.484   175.048
12901.6     50.087   149.857
13089.2     48.530   125.700
13279.6     45.524   110.432
13472.8     41.812   116.336
13668.8     39.985   134.348
13867.6     41.691   144.609
14069.3     43.648   134.854
14273.9     43.896   117.434
14481.5     42.911   100.782
14692.2     40.658    93.240
14905.9     39.249    92.008
15122.7     39.639    86.121
15342.7     40.461    66.188
15565.8     38.528    43.399
15792.2     34.608     4.891
16021.9     31.156   -71.129
16255.0     31.847  -161.200
16491.4     33.396   132.214
16731.3     34.242   100.732
16974.7     33.885   112.747
17221.6     33.854   143.195
17472.1     35.802   150.504
17726.2     37.311   123.177
17984.0     36.419   107.053
18245.6     34.589   105.178
18511.0     34.871   105.400
18780.2     36.394    99.965
19053.4     37.171    91.058
19330.5     37.847    82.990
19611.7     39.133    75.347
19897.0     40.322    60.896
20186.4     40.601    38.848
20480.0     39.994    18.351
20777.9     39.154     1.599
21080.1     38.049   -19.475
21386.7     36.022   -36.680
21697.8     34.541   -19.521
22013.4     34.886     8.154
22333.6     35.782    13.041
22658.4     35.815    -6.128
22988.0     34.857   -18.217
23322.4     30.591   -55.597
23661.6     35.448   -94.093
