Freq[Hz]     dBSPL  Phase[Deg]
5.00000    -14.419   -16.972
5.07273    -14.056   -17.053
5.14651    -13.629   -17.142
5.22137    -13.184   -17.234
5.29732    -12.740   -17.327
5.37437    -12.295   -17.422
5.45254    -11.850   -17.518
5.53185    -11.405   -17.615
5.61231    -10.960   -17.714
5.69394    -10.515   -17.814
5.77676    -10.070   -17.916
5.86079     -9.625   -18.020
5.94604     -9.180   -18.124
6.03252     -8.735   -18.231
6.12027     -8.290   -18.339
6.20929     -7.844   -18.449
6.29961     -7.399   -18.560
6.39124     -6.954   -18.673
6.48420     -6.509   -18.787
6.57851     -6.064   -18.903
6.67420     -5.618   -19.021
6.77128     -5.173   -19.141
6.86977     -4.728   -19.263
6.96969     -4.282   -19.386
7.07107     -3.837   -19.511
7.17392     -3.391   -19.638
7.27827     -2.946   -19.767
7.38413     -2.500   -19.898
7.49154     -2.055   -20.031
7.60050     -1.609   -20.165
7.71105     -1.164   -20.302
7.82321     -0.718   -20.441
7.93701     -0.272   -20.582
8.05245      0.173   -20.725
8.16958      0.619   -20.870
8.28841      1.065   -21.017
8.40896      1.511   -21.167
8.53128      1.957   -21.319
8.65537      2.403   -21.473
8.78126      2.849   -21.629
8.90899      3.295   -21.788
9.03857      3.741   -21.949
9.17004      4.188   -22.113
9.30342      4.634   -22.279
9.43874      5.080   -22.447
9.57603      5.527   -22.618
9.71532      5.973   -22.792
9.85663      6.420   -22.968
10.0000      6.866   -23.147
10.1455      7.313   -23.329
10.2930      7.760   -23.514
10.4427      8.207   -23.701
10.5946      8.654   -23.891
10.7487      9.101   -24.084
10.9051      9.548   -24.280
11.0637      9.995   -24.479
11.2246     10.442   -24.682
11.3879     10.889   -24.887
11.5535     11.337   -25.095
11.7216     11.784   -25.307
11.8921     12.232   -25.522
12.0650     12.680   -25.740
12.2405     13.128   -25.962
12.4186     13.575   -26.187
12.5992     14.024   -26.415
12.7825     14.472   -26.648
12.9684     14.920   -26.884
13.1570     15.368   -27.123
13.3484     15.817   -27.366
13.5426     16.265   -27.614
13.7395     16.714   -27.865
13.9394     17.163   -28.120
14.1421     17.612   -28.379
14.3478     18.061   -28.642
14.5565     18.511   -28.909
14.7683     18.960   -29.181
14.9831     19.410   -29.457
15.2010     19.859   -29.738
15.4221     20.309   -30.023
15.6464     20.759   -30.312
15.8740     21.210   -30.607
16.1049     21.660   -30.906
16.3392     22.111   -31.210
16.5768     22.561   -31.519
16.8179     23.012   -31.833
17.0626     23.463   -32.152
17.3107     23.915   -32.477
17.5625     24.366   -32.807
17.8180     24.818   -33.142
18.0771     25.270   -33.483
18.3401     25.722   -33.830
18.6068     26.175   -34.183
18.8775     26.627   -34.541
19.1521     27.080   -34.906
19.4306     27.533   -35.277
19.7133     27.987   -35.655
20.0000     28.440   -36.039
20.2909     28.907   -36.408
20.5860     29.443   -36.662
20.8855     30.063   -36.873
21.1893     30.680   -37.692
21.4975     31.201   -39.517
21.8102     31.599   -41.528
22.1274     31.889   -42.328
22.4492     32.133   -41.801
22.7758     32.475   -40.998
23.1071     32.980   -40.667
23.4432     33.565   -40.761
23.7841     34.128   -41.046
24.1301     34.650   -41.567
24.4811     35.140   -42.355
24.8372     35.600   -43.342
25.1984     36.044   -44.368
25.5649     36.490   -45.284
25.9368     36.956   -46.019
26.3141     37.458   -46.661
26.6968     37.992   -47.382
27.0851     38.520   -48.341
27.4791     39.010   -49.518
27.8788     39.466   -50.684
28.2843     39.911   -51.679
28.6957     40.353   -52.619
29.1131     40.798   -53.617
29.5365     41.255   -54.588
29.9661     41.738   -55.464
30.4020     42.250   -56.341
30.8442     42.780   -57.410
31.2929     43.287   -58.686
31.7480     43.745   -60.006
32.2098     44.188   -61.235
32.6783     44.657   -62.381
33.1536     45.142   -63.481
33.6359     45.628   -64.759
34.1251     46.144   -66.193
34.6215     46.709   -67.511
35.1250     47.230   -69.066
35.6359     47.639   -70.904
36.1543     47.982   -72.287
36.6802     48.397   -72.859
37.2137     48.912   -73.716
37.7550     49.473   -75.438
38.3041     50.015   -77.421
38.8613     50.520   -79.138
39.4265     50.992   -80.644
40.0000     51.451   -82.131
40.5818     51.920   -83.620
41.1721     52.405   -85.209
41.7710     52.904   -86.954
42.3785     53.400   -88.761
42.9949     53.879   -90.588
43.6203     54.351   -92.438
44.2548     54.841   -94.289
44.8985     55.337   -96.154
45.5515     55.817   -98.062
46.2141     56.290   -99.986
46.8863     56.781  -101.966
47.5683     57.272  -104.081
48.2602     57.729  -106.196
48.9621     58.170  -108.232
49.6743     58.634  -110.321
50.3968     59.128  -112.602
51.1299     59.616  -115.038
51.8736     60.083  -117.505
52.6281     60.532  -119.943
53.3936     60.980  -122.266
54.1702     61.433  -124.531
54.9581     61.891  -126.968
55.7575     62.330  -129.745
56.5685     62.753  -132.630
57.3914     63.168  -135.403
58.2261     63.586  -138.098
59.0730     63.996  -140.834
59.9323     64.390  -143.639
60.8040     64.777  -146.526
61.6884     65.167  -149.487
62.5857     65.558  -152.469
63.4960     65.935  -155.445
64.4196     66.286  -158.509
65.3566     66.608  -161.695
66.3073     66.911  -164.934
67.2717     67.214  -168.101
68.2502     67.519  -171.187
69.2429     67.822  -174.231
70.2501     68.116  -177.334
71.2719     68.397   179.418
72.3086     68.656   176.056
73.3603     68.882   172.690
74.4274     69.079   169.422
75.5099     69.273   166.274
76.6083     69.476   163.188
77.7226     69.677   160.086
78.8531     69.859   156.943
80.0000     70.017   153.815
81.1636     70.151   150.748
82.3442     70.269   147.693
83.5419     70.390   144.683
84.7570     70.511   141.757
85.9899     70.616   138.860
87.2406     70.705   135.944
88.5096     70.786   133.123
89.7970     70.859   130.430
91.1031     70.923   127.757
92.4282     70.980   125.091
93.7726     71.034   122.486
95.1366     71.088   119.972
96.5204     71.134   117.481
97.9243     71.167   114.999
99.3486     71.191   112.549
100.794     71.211   110.183
102.260     71.223   107.899
103.747     71.233   105.663
105.256     71.235   103.479
106.787     71.227   101.385
108.340     71.223    99.402
109.916     71.239    97.436
111.515     71.257    95.451
113.137     71.261    93.454
114.783     71.250    91.598
116.452     71.241    89.811
118.146     71.245    88.002
119.865     71.251    86.078
121.608     71.239    84.240
123.377     71.204    82.490
125.171     71.169    80.882
126.992     71.142    79.360
128.839     71.128    77.919
130.713     71.121    76.460
132.615     71.123    75.010
134.543     71.122    73.528
136.500     71.120    72.089
138.486     71.119    70.666
140.500     71.116    69.246
142.544     71.108    67.799
144.617     71.092    66.396
146.721     71.088    65.054
148.855     71.087    63.709
151.020     71.085    62.351
153.217     71.073    60.942
155.445     71.045    59.600
157.706     71.022    58.426
160.000     71.019    57.287
162.327     71.027    56.041
164.688     71.017    54.765
167.084     70.998    53.636
169.514     70.990    52.568
171.980     71.000    51.473
174.481     71.022    50.313
177.019     71.044    49.023
179.594     71.044    47.646
182.206     71.017    46.389
184.856     70.995    45.288
187.545     70.993    44.180
190.273     70.993    42.940
193.041     70.973    41.703
195.849     70.943    40.593
198.697     70.921    39.590
201.587     70.913    38.604
204.520     70.921    37.513
207.494     70.917    36.240
210.512     70.871    34.922
213.574     70.781    33.903
216.681     70.709    33.398
219.833     70.719    33.068
223.030     70.810    32.369
226.274     70.894    30.998
229.565     70.890    29.282
232.905     70.803    27.790
236.292     70.693    26.795
239.729     70.620    26.201
243.216     70.590    25.673
246.754     70.599    25.079
250.343     70.607    24.198
253.984     70.584    23.239
257.678     70.536    22.461
261.426     70.534    21.984
265.229     70.589    21.306
269.087     70.633    20.177
273.001     70.614    18.842
276.972     70.553    17.630
281.000     70.457    16.691
285.088     70.362    16.157
289.234     70.311    16.028
293.441     70.363    15.843
297.709     70.454    15.087
302.040     70.505    13.820
306.433     70.473    12.593
310.890     70.436    11.801
315.412     70.423    10.891
320.000     70.379     9.842
324.655     70.298     9.007
329.377     70.226     8.626
334.168     70.206     8.353
339.028     70.248     7.974
343.959     70.319     7.188
348.962     70.330     6.120
354.038     70.318     5.292
359.188     70.354     4.405
364.412     70.362     2.953
369.713     70.261     1.635
375.090     70.141     0.826
380.546     70.062     0.355
386.081     70.005    -0.247
391.697     69.947    -0.648
397.394     69.920    -0.805
403.175     69.939    -1.327
409.039     69.898    -2.232
414.989     69.792    -2.683
421.025     69.759    -2.141
427.149     69.921    -1.918
433.362     70.106    -2.948
439.665     70.195    -4.595
446.060     70.121    -6.480
452.548     69.946    -7.576
459.131     69.821    -7.746
465.809     69.847    -7.638
472.584     69.883    -8.399
479.458     69.844    -9.238
486.432     69.844    -9.833
493.507     69.850   -10.909
500.686     69.711   -11.888
507.968     69.551   -11.616
515.357     69.603   -10.815
522.853     69.777   -11.172
530.458     69.823   -12.143
538.174     69.842   -12.824
546.002     69.897   -13.259
553.943     70.050   -14.404
562.001     70.077   -16.398
570.175     70.005   -18.258
578.469     69.761   -19.267
586.883     69.533   -19.024
595.419     69.438   -18.165
604.080     69.549   -17.051
612.866     69.784   -17.314
621.780     69.928   -19.203
630.824     69.871   -21.056
640.000     69.736   -21.169
649.309     69.762   -20.321
658.753     69.990   -20.304
668.335     70.240   -22.031
678.056     70.337   -24.751
687.919     70.286   -27.274
697.925     70.095   -28.891
708.077     69.835   -29.418
718.376     69.660   -28.910
728.825     69.769   -28.575
739.426     69.885   -29.538
750.181     69.823   -30.338
761.093     69.808   -30.456
772.163     69.930   -31.088
783.394     69.988   -32.348
794.789     69.967   -33.087
806.349     69.994   -33.491
818.078     70.112   -34.438
829.977     70.282   -36.040
842.050     70.290   -38.462
854.298     70.097   -40.137
866.724     69.957   -40.279
879.330     70.082   -40.447
892.120     70.126   -42.290
905.097     70.011   -43.878
918.262     69.924   -43.959
931.618     70.046   -43.871
945.169     70.231   -45.411
958.917     70.313   -47.986
972.864     70.219   -49.747
987.015     70.210   -50.766
1001.37     70.323   -52.703
1015.94     70.299   -55.774
1030.71     70.081   -58.340
1045.71     69.868   -59.906
1060.92     69.659   -60.795
1076.35     69.472   -61.207
1092.00     69.387   -62.168
1107.89     69.265   -63.975
1124.00     68.975   -65.523
1140.35     68.686   -65.523
1156.94     68.547   -64.588
1173.77     68.475   -63.172
1190.84     68.690   -62.474
1208.16     69.020   -63.499
1225.73     69.217   -66.045
1243.56     69.210   -68.668
1261.65     69.072   -70.976
1280.00     68.805   -72.371
1298.62     68.517   -73.007
1317.51     68.438   -72.171
1336.67     68.620   -71.689
1356.11     68.868   -72.763
1375.84     68.925   -75.859
1395.85     68.751   -77.856
1416.15     68.585   -79.105
1436.75     68.437   -79.645
1457.65     68.365   -80.298
1478.85     68.328   -81.263
1500.36     68.339   -82.119
1522.19     68.279   -82.815
1544.33     68.327   -83.483
1566.79     68.378   -84.909
1589.58     68.436   -85.936
1612.70     68.479   -86.699
1636.16     68.545   -87.989
1659.95     68.680   -89.976
1684.10     68.767   -92.529
1708.60     68.693   -95.084
1733.45     68.565   -96.803
1758.66     68.556   -98.065
1784.24     68.706   -99.228
1810.19     68.791  -101.410
1836.52     68.730  -103.997
1863.24     68.580  -106.072
1890.34     68.499  -107.382
1917.83     68.450  -109.347
1945.73     68.419  -112.469
1974.03     68.525  -114.823
2002.74     68.685  -116.965
2031.87     68.695  -120.287
2061.43     68.473  -124.665
2091.41     68.067  -128.132
2121.83     67.613  -130.224
2152.69     67.372  -130.590
2184.01     67.326  -131.389
2215.77     67.380  -133.047
2248.00     67.348  -135.990
2280.70     67.185  -138.200
2313.87     66.985  -140.408
2347.53     66.967  -142.711
2381.68     67.004  -145.572
2416.32     66.913  -147.809
2451.46     66.769  -149.488
2487.12     66.705  -151.525
2523.30     66.661  -153.544
2560.00     66.713  -155.483
2597.24     66.836  -157.816
2635.01     66.984  -161.370
2673.34     66.952  -165.836
2712.23     66.781  -170.178
2751.68     66.508  -173.527
2791.70     66.275  -176.196
2832.31     66.096  -179.550
2873.50     65.999   176.874
2915.30     66.015   173.740
2957.70     66.150   170.712
3000.72     66.383   166.581
3044.37     66.555   161.531
3088.65     66.536   155.893
3133.58     66.388   150.577
3179.16     66.300   145.974
3225.40     66.315   141.391
3272.31     66.338   136.110
3319.91     66.355   130.982
3368.20     66.414   125.939
3417.19     66.522   120.018
3466.89     66.578   113.445
3517.32     66.541   107.219
3568.48     66.474   101.452
3620.39     66.485    95.552
3673.05     66.523    89.769
3726.47     66.584    84.267
3780.67     66.685    78.431
3835.67     66.795    71.860
3891.46     66.823    65.336
3948.06     66.763    59.846
4005.49     66.810    55.409
4063.75     67.070    50.638
4122.86     67.432    44.807
4182.82     67.621    37.570
4243.66     67.519    30.285
4305.39     67.280    24.905
4368.01     67.224    21.792
4431.55     67.485    18.536
4496.01     67.841    13.477
4561.40     68.014     7.462
4627.75     68.013     1.810
4695.06     67.981    -2.890
4763.35     68.004    -7.125
4832.64     68.017   -11.565
4902.93     67.957   -15.851
4974.24     67.861   -18.789
5046.60     67.963   -20.526
5120.00     68.311   -23.059
5194.47     68.723   -27.038
5270.03     69.020   -32.229
5346.68     69.089   -37.637
5424.45     69.040   -41.987
5503.35     69.086   -45.345
5583.40     69.259   -49.277
5664.61     69.354   -54.419
5747.01     69.233   -59.763
5830.60     68.937   -64.206
5915.41     68.605   -66.941
6001.45     68.416   -68.409
6088.74     68.411   -70.055
6177.30     68.425   -73.179
6267.15     68.223   -76.389
6358.31     67.938   -77.779
6450.80     67.872   -77.908
6544.62     68.000   -79.036
6639.82     68.061   -81.022
6736.40     68.065   -83.019
6834.38     68.075   -84.446
6933.79     68.126   -85.000
7034.64     68.353   -85.288
7136.96     68.727   -87.075
7240.77     68.990   -90.353
7346.09     69.097   -93.460
7452.94     69.251   -96.219
7561.35     69.450   -99.505
7671.33     69.520  -103.526
7782.91     69.362  -107.169
7896.12     69.107  -109.533
8010.97     69.020  -111.028
8127.49     69.097  -113.354
8245.71     69.049  -116.768
8365.65     68.808  -119.626
8487.33     68.647  -121.221
8610.78     68.643  -122.736
8736.03     68.567  -125.148
8863.09     68.369  -126.918
8992.01     68.331  -127.849
9122.80     68.413  -129.596
9255.50     68.350  -132.277
9390.12     68.167  -134.143
9526.70     68.178  -135.185
9665.27     68.243  -137.339
9805.86     68.084  -139.580
9948.49     67.893  -141.031
10093.2     67.833  -142.511
10240.0     67.833  -144.500
10388.9     67.778  -146.664
10540.1     67.707  -148.839
10693.4     67.608  -151.895
10848.9     67.288  -155.172
11006.7     66.819  -157.128
11166.8     66.281  -157.639
11329.2     65.846  -156.436
11494.0     65.660  -154.883
11661.2     65.673  -153.768
11830.8     65.820  -153.899
12002.9     65.834  -154.457
12177.5     65.878  -154.940
12354.6     65.803  -155.600
12534.3     65.867  -155.549
12716.6     65.970  -156.210
12901.6     66.118  -157.200
13089.2     66.174  -159.087
13279.6     66.221  -160.926
13472.8     66.182  -163.030
13668.8     66.116  -165.052
13867.6     65.938  -166.828
14069.3     65.755  -168.438
14273.9     65.516  -169.175
14481.5     65.439  -169.686
14692.2     65.374  -170.316
14905.9     65.401  -171.589
15122.7     65.317  -173.283
15342.7     65.098  -174.340
15565.8     64.917  -175.060
15792.2     64.825  -175.273
16021.9     64.916  -176.033
16255.0     64.967  -177.323
16491.4     65.049  -179.487
16731.3     65.013   178.340
16974.7     64.951   176.467
17221.6     64.835   174.613
17472.1     64.699   172.516
17726.2     64.410   170.431
17984.0     63.999   169.627
18245.6     63.550   170.084
18511.0     63.270   171.283
18780.2     63.133   172.199
19053.4     63.120   172.814
19330.5     63.149   173.055
19611.7     63.288   172.701
19897.0     63.441   171.612
20186.4     63.561   169.971
20480.0     63.628   168.459
20777.9     63.705   167.213
21080.1     63.766   166.078
21386.7     63.807   164.357
21697.8     63.802   162.173
22013.4     63.597   160.487
22333.6     63.162   160.427
22658.4     62.537   162.496
22988.0     61.212   166.640
23322.4     56.898   146.354
23661.6     62.520   129.036
