Freq[Hz]     dBSPL  Phase[Deg]
5.00000    -14.488   -17.330
5.07273    -14.124   -17.409
5.14651    -13.696   -17.496
5.22137    -13.250   -17.586
5.29732    -12.803   -17.677
5.37437    -12.357   -17.770
5.45254    -11.911   -17.864
5.53185    -11.464   -17.959
5.61231    -11.018   -18.056
5.69394    -10.571   -18.154
5.77676    -10.125   -18.253
5.86079     -9.678   -18.354
5.94604     -9.231   -18.457
6.03252     -8.785   -18.561
6.12027     -8.338   -18.667
6.20929     -7.892   -18.774
6.29961     -7.445   -18.883
6.39124     -6.998   -18.993
6.48420     -6.552   -19.105
6.57851     -6.105   -19.219
6.67420     -5.658   -19.334
6.77128     -5.211   -19.451
6.86977     -4.764   -19.570
6.96969     -4.317   -19.691
7.07107     -3.870   -19.813
7.17392     -3.423   -19.937
7.27827     -2.976   -20.063
7.38413     -2.529   -20.191
7.49154     -2.082   -20.321
7.60050     -1.635   -20.453
7.71105     -1.188   -20.586
7.82321     -0.741   -20.722
7.93701     -0.294   -20.860
8.05245      0.154   -21.000
8.16958      0.601   -21.142
8.28841      1.048   -21.286
8.40896      1.496   -21.432
8.53128      1.943   -21.581
8.65537      2.391   -21.731
8.78126      2.838   -21.884
8.90899      3.286   -22.039
9.03857      3.734   -22.197
9.17004      4.181   -22.357
9.30342      4.629   -22.519
9.43874      5.077   -22.684
9.57603      5.525   -22.852
9.71532      5.973   -23.022
9.85663      6.421   -23.194
10.0000      6.869   -23.369
10.1455      7.317   -23.547
10.2930      7.766   -23.727
10.4427      8.214   -23.911
10.5946      8.662   -24.097
10.7487      9.111   -24.286
10.9051      9.560   -24.477
11.0637     10.008   -24.672
11.2246     10.457   -24.870
11.3879     10.906   -25.071
11.5535     11.355   -25.275
11.7216     11.804   -25.482
11.8921     12.253   -25.692
12.0650     12.702   -25.906
12.2405     13.152   -26.122
12.4186     13.601   -26.343
12.5992     14.051   -26.566
12.7825     14.500   -26.794
12.9684     14.950   -27.024
13.1570     15.400   -27.259
13.3484     15.850   -27.497
13.5426     16.300   -27.739
13.7395     16.750   -27.984
13.9394     17.201   -28.234
14.1421     17.651   -28.487
14.3478     18.102   -28.745
14.5565     18.553   -29.007
14.7683     19.004   -29.273
14.9831     19.455   -29.543
15.2010     19.906   -29.817
15.4221     20.357   -30.096
15.6464     20.809   -30.380
15.8740     21.261   -30.668
16.1049     21.713   -30.961
16.3392     22.165   -31.259
16.5768     22.617   -31.561
16.8179     23.070   -31.869
17.0626     23.522   -32.181
17.3107     23.975   -32.499
17.5625     24.428   -32.822
17.8180     24.881   -33.151
18.0771     25.335   -33.485
18.3401     25.789   -33.824
18.6068     26.243   -34.170
18.8775     26.697   -34.521
19.1521     27.151   -34.878
19.4306     27.606   -35.242
19.7133     28.061   -35.611
20.0000     28.516   -35.987
20.2909     28.984   -36.347
20.5860     29.520   -36.580
20.8855     30.139   -36.756
21.1893     30.753   -37.529
21.4975     31.266   -39.306
21.8102     31.662   -41.275
22.1274     31.962   -42.044
22.4492     32.224   -41.503
22.7758     32.579   -40.714
23.1071     33.083   -40.423
23.4432     33.659   -40.569
23.7841     34.215   -40.895
24.1301     34.734   -41.416
24.4811     35.225   -42.150
24.8372     35.690   -43.068
25.1984     36.136   -44.060
25.5649     36.583   -44.979
25.9368     37.049   -45.735
26.3141     37.551   -46.395
26.6968     38.085   -47.124
27.0851     38.611   -48.077
27.4791     39.097   -49.239
27.8788     39.550   -50.378
28.2843     39.996   -51.336
28.6957     40.444   -52.241
29.1131     40.894   -53.216
29.5365     41.354   -54.181
29.9661     41.838   -55.058
30.4020     42.352   -55.937
30.8442     42.884   -57.020
31.2929     43.391   -58.315
31.7480     43.850   -59.637
32.2098     44.293   -60.852
32.6783     44.761   -61.984
33.1536     45.251   -63.068
33.6359     45.741   -64.340
34.1251     46.254   -65.809
34.6215     46.813   -67.209
35.1250     47.326   -68.808
35.6359     47.724   -70.599
36.1543     48.057   -71.870
36.6802     48.476   -72.340
37.2137     49.004   -73.133
37.7550     49.574   -74.842
38.3041     50.117   -76.855
38.8613     50.620   -78.601
39.4265     51.093   -80.112
40.0000     51.553   -81.589
40.5818     52.021   -83.074
41.1721     52.505   -84.657
41.7710     53.000   -86.396
42.3785     53.491   -88.188
42.9949     53.966   -89.964
43.6203     54.441   -91.731
44.2548     54.939   -93.524
44.8985     55.445   -95.390
45.5515     55.930   -97.329
46.2141     56.404   -99.275
46.8863     56.892  -101.259
47.5683     57.380  -103.360
48.2602     57.838  -105.460
48.9621     58.281  -107.486
49.6743     58.747  -109.570
50.3968     59.242  -111.848
51.1299     59.727  -114.279
51.8736     60.191  -116.736
52.6281     60.639  -119.154
53.3936     61.087  -121.465
54.1702     61.538  -123.718
54.9581     61.992  -126.120
55.7575     62.432  -128.834
56.5685     62.859  -131.667
57.3914     63.280  -134.427
58.2261     63.701  -137.130
59.0730     64.112  -139.864
59.9323     64.507  -142.650
60.8040     64.896  -145.515
61.6884     65.287  -148.467
62.5857     65.678  -151.451
63.4960     66.056  -154.421
64.4196     66.409  -157.466
65.3566     66.732  -160.634
66.3073     67.035  -163.857
67.2717     67.336  -167.012
68.2502     67.641  -170.086
69.2429     67.944  -173.108
70.2501     68.239  -176.175
71.2719     68.524  -179.396
72.3086     68.785   177.239
73.3603     69.011   173.868
74.4274     69.208   170.620
75.5099     69.401   167.507
76.6083     69.605   164.439
77.7226     69.806   161.340
78.8531     69.989   158.213
80.0000     70.147   155.116
81.1636     70.282   152.084
82.3442     70.400   149.071
83.5419     70.524   146.098
84.7570     70.651   143.188
85.9899     70.761   140.290
87.2406     70.851   137.375
88.5096     70.931   134.558
89.7970     71.004   131.874
91.1031     71.069   129.228
92.4282     71.126   126.589
93.7726     71.181   124.001
95.1366     71.237   121.499
96.5204     71.283   119.031
97.9243     71.316   116.578
99.3486     71.341   114.154
100.794     71.363   111.815
102.260     71.378   109.559
103.747     71.390   107.349
105.256     71.394   105.193
106.787     71.392   103.124
108.340     71.392   101.145
109.916     71.410    99.159
111.515     71.427    97.157
113.137     71.428    95.153
114.783     71.411    93.302
116.452     71.395    91.546
118.146     71.393    89.799
119.865     71.395    87.953
121.608     71.384    86.190
123.377     71.352    84.511
125.171     71.321    82.959
126.992     71.297    81.487
128.839     71.286    80.092
130.713     71.280    78.692
132.615     71.285    77.311
134.543     71.289    75.919
136.500     71.298    74.580
138.486     71.317    73.222
140.500     71.335    71.785
142.544     71.338    70.257
144.617     71.321    68.786
146.721     71.310    67.433
148.855     71.306    66.128
151.020     71.305    64.813
153.217     71.297    63.441
155.445     71.275    62.129
157.706     71.257    60.956
160.000     71.254    59.791
162.327     71.254    58.530
164.688     71.231    57.308
167.084     71.206    56.297
169.514     71.203    55.365
171.980     71.222    54.358
174.481     71.250    53.258
177.019     71.277    52.056
179.594     71.291    50.777
182.206     71.284    49.533
184.856     71.269    48.373
187.545     71.260    47.261
190.273     71.254    46.134
193.041     71.242    45.039
195.849     71.227    43.991
198.697     71.211    42.983
201.587     71.198    42.053
204.520     71.205    41.111
207.494     71.211    40.014
210.512     71.182    38.848
213.574     71.119    37.977
216.681     71.083    37.550
219.833     71.124    37.199
223.030     71.234    36.473
226.274     71.338    35.088
229.565     71.354    33.323
232.905     71.274    31.739
236.292     71.161    30.789
239.729     71.102    30.312
243.216     71.101    29.797
246.754     71.123    29.085
250.343     71.129    28.214
253.984     71.121    27.335
257.678     71.093    26.583
261.426     71.108    26.094
265.229     71.182    25.382
269.087     71.241    24.170
273.001     71.221    22.770
276.972     71.152    21.597
281.000     71.062    20.800
285.088     70.994    20.445
289.234     70.999    20.396
293.441     71.110    19.962
297.709     71.212    18.736
302.040     71.219    17.166
306.433     71.140    15.995
310.890     71.076    15.377
315.412     71.054    14.776
320.000     71.030    14.117
324.655     71.011    13.568
329.377     71.019    13.082
334.168     71.051    12.513
339.028     71.109    11.709
343.959     71.137    10.662
348.962     71.092     9.754
354.038     71.073     9.495
359.188     71.195     8.920
364.412     71.280     7.306
369.713     71.201     5.725
375.090     71.101     4.962
380.546     71.087     4.380
386.081     71.064     3.326
391.697     70.970     2.590
397.394     70.929     2.446
403.175     70.954     1.962
409.039     70.923     1.098
414.989     70.840     0.774
421.025     70.864     1.228
427.149     71.064     1.199
433.362     71.272    -0.054
439.665     71.378    -1.948
446.060     71.304    -4.033
452.548     71.167    -5.324
459.131     71.070    -6.117
465.809     71.010    -6.795
472.584     70.883    -7.402
479.458     70.788    -7.287
486.432     70.857    -7.046
493.507     70.995    -7.768
500.686     71.002    -9.030
507.968     70.927    -9.602
515.357     70.966    -9.651
522.853     71.096   -10.368
530.458     71.133   -11.517
538.174     71.109   -12.492
546.002     71.118   -12.809
553.943     71.273   -13.764
562.001     71.321   -15.654
570.175     71.259   -17.629
578.469     71.110   -18.464
586.883     71.016   -18.913
595.419     70.927   -19.261
604.080     70.959   -19.013
612.866     71.103   -19.406
621.780     71.171   -21.208
630.824     71.121   -22.868
640.000     71.040   -23.287
649.309     71.049   -23.118
658.753     71.218   -23.537
668.335     71.435   -25.551
678.056     71.431   -28.567
687.919     71.278   -31.202
697.925     71.015   -32.653
708.077     70.748   -32.976
718.376     70.586   -32.314
728.825     70.697   -32.137
739.426     70.725   -33.364
750.181     70.664   -34.130
761.093     70.720   -34.477
772.163     70.825   -35.820
783.394     70.767   -37.612
794.789     70.630   -38.713
806.349     70.522   -39.009
818.078     70.497   -39.847
829.977     70.521   -41.052
842.050     70.398   -42.489
854.298     70.253   -42.797
866.724     70.270   -43.147
879.330     70.338   -44.526
892.120     70.126   -46.163
905.097     69.908   -46.473
918.262     69.815   -45.831
931.618     69.879   -45.501
945.169     69.928   -46.068
958.917     69.964   -47.141
972.864     69.973   -47.743
987.015     70.035   -48.543
1001.37     70.071   -49.892
1015.94     69.978   -51.237
1030.71     69.863   -52.143
1045.71     69.811   -53.042
1060.92     69.867   -53.541
1076.35     69.972   -53.946
1092.00     69.952   -55.952
1107.89     69.590   -58.415
1124.00     69.055   -58.542
1140.35     68.849   -55.863
1156.94     69.080   -53.385
1173.77     69.607   -51.863
1190.84     70.252   -52.927
1208.16     70.667   -56.788
1225.73     70.568   -61.198
1243.56     70.259   -64.044
1261.65     70.007   -65.469
1280.00     69.797   -66.432
1298.62     69.608   -66.169
1317.51     69.726   -65.989
1336.67     69.919   -67.092
1356.11     69.845   -69.313
1375.84     69.461   -69.745
1395.85     69.390   -67.855
1416.15     69.698   -66.619
1436.75     70.089   -67.900
1457.65     70.236   -70.615
1478.85     70.220   -72.641
1500.36     70.183   -73.700
1522.19     70.159   -73.762
1544.33     70.389   -74.617
1566.79     70.591   -76.724
1589.58     70.657   -80.152
1612.70     70.541   -82.288
1636.16     70.494   -82.765
1659.95     70.622   -83.320
1684.10     70.784   -85.948
1708.60     70.762   -89.043
1733.45     70.477   -91.080
1758.66     70.333   -91.716
1784.24     70.412   -91.918
1810.19     70.495   -92.643
1836.52     70.472   -94.029
1863.24     70.593   -95.070
1890.34     70.871   -95.484
1917.83     71.149   -96.688
1945.73     71.301   -99.520
1974.03     71.387  -102.479
2002.74     71.500  -104.559
2031.87     71.571  -106.620
2061.43     71.403  -109.681
2091.41     71.173  -112.295
2121.83     71.084  -114.240
2152.69     71.212  -115.967
2184.01     71.333  -117.617
2215.77     71.439  -119.422
2248.00     71.460  -121.800
2280.70     71.344  -124.402
2313.87     71.276  -126.286
2347.53     71.417  -128.128
2381.68     71.689  -130.583
2416.32     71.832  -133.567
2451.46     71.827  -136.169
2487.12     71.796  -138.321
2523.30     71.864  -140.026
2560.00     72.060  -141.917
2597.24     72.290  -144.540
2635.01     72.446  -148.011
2673.34     72.505  -151.565
2712.23     72.533  -154.946
2751.68     72.545  -157.988
2791.70     72.614  -161.147
2832.31     72.619  -164.756
2873.50     72.580  -168.562
2915.30     72.549  -171.931
2957.70     72.620  -175.207
3000.72     72.657  -178.724
3044.37     72.629   177.834
3088.65     72.599   174.743
3133.58     72.647   171.732
3179.16     72.794   168.413
3225.40     72.931   164.966
3272.31     73.087   161.714
3319.91     73.306   158.023
3368.20     73.556   153.376
3417.19     73.742   148.270
3466.89     73.908   143.273
3517.32     74.121   137.880
3568.48     74.313   131.868
3620.39     74.399   125.522
3673.05     74.384   119.443
3726.47     74.373   113.382
3780.67     74.380   106.978
3835.67     74.359   100.196
3891.46     74.245    93.379
3948.06     74.076    86.849
4005.49     73.945    80.528
4063.75     73.911    74.020
4122.86     73.813    67.133
4182.82     73.574    60.317
4243.66     73.289    54.101
4305.39     73.094    48.162
4368.01     72.985    42.030
4431.55     72.934    35.767
4496.01     72.944    29.242
4561.40     72.984    22.010
4627.75     72.977    14.129
4695.06     72.939     5.895
4763.35     72.865    -2.905
4832.64     72.700   -12.241
4902.93     72.422   -21.284
4974.24     72.105   -29.339
5046.60     71.892   -36.530
5120.00     71.861   -44.091
5194.47     71.910   -52.917
5270.03     71.879   -62.868
5346.68     71.700   -73.238
5424.45     71.426   -83.229
5503.35     71.160   -92.665
5583.40     70.946  -102.209
5664.61     70.717  -112.170
5747.01     70.415  -121.901
5830.60     70.111  -131.168
5915.41     69.885  -140.220
6001.45     69.717  -149.270
6088.74     69.543  -158.899
6177.30     69.301  -169.223
6267.15     68.959  -179.706
6358.31     68.504   170.576
6450.80     67.968   162.129
6544.62     67.550   155.411
6639.82     67.416   149.441
6736.40     67.586   142.798
6834.38     67.939   134.523
6933.79     68.204   124.386
7034.64     68.156   113.322
7136.96     67.874   103.112
7240.77     67.623    94.742
7346.09     67.505    86.962
7452.94     67.541    78.820
7561.35     67.683    69.673
7671.33     67.686    60.380
7782.91     67.674    52.214
7896.12     67.903    43.957
8010.97     68.215    34.109
8127.49     68.409    23.577
8245.71     68.640    13.116
8365.65     68.882     2.040
8487.33     69.013    -9.823
8610.78     69.092   -21.576
8736.03     69.257   -33.398
8863.09     69.365   -46.027
8992.01     69.368   -59.387
9122.80     69.221   -72.986
9255.50     68.900   -86.281
9390.12     68.432   -98.662
9526.70     67.995  -109.920
9665.27     67.579  -120.233
9805.86     67.163  -129.757
9948.49     66.868  -138.535
10093.2     66.796  -147.830
10240.0     66.834  -157.207
10388.9     66.983  -166.828
10540.1     67.217  -176.995
10693.4     67.439   171.694
10848.9     67.633   160.823
11006.7     68.023   149.814
11166.8     68.578   137.844
11329.2     69.212   123.957
11494.0     69.699   108.348
11661.2     70.014    91.652
11830.8     70.116    74.867
12002.9     70.082    58.375
12177.5     69.968    42.107
12354.6     69.754    25.852
12534.3     69.449    10.124
12716.6     69.108    -4.991
12901.6     68.853   -19.365
13089.2     68.687   -33.766
13279.6     68.563   -48.385
13472.8     68.470   -63.110
13668.8     68.412   -77.928
13867.6     68.451   -92.570
14069.3     68.572  -108.004
14273.9     68.753  -124.221
14481.5     68.851  -141.487
14692.2     68.863  -158.801
14905.9     68.813  -176.233
15122.7     68.788   166.393
15342.7     68.745   148.614
15565.8     68.679   130.596
15792.2     68.592   112.494
16021.9     68.545    94.574
16255.0     68.550    76.319
16491.4     68.591    57.601
16731.3     68.574    38.431
16974.7     68.511    19.268
17221.6     68.441     0.529
17472.1     68.449   -18.179
17726.2     68.498   -37.420
17984.0     68.554   -57.569
18245.6     68.532   -77.963
18511.0     68.423   -98.574
18780.2     68.334  -119.386
19053.4     68.368  -140.747
19330.5     68.442  -162.786
19611.7     68.377   174.073
19897.0     68.174   150.501
20186.4     67.916   127.635
20480.0     67.709   105.757
20777.9     67.566    83.873
21080.1     67.452    61.312
21386.7     67.256    38.795
21697.8     66.968    17.225
22013.4     66.744    -3.271
22333.6     66.649   -23.327
22658.4     66.476   -42.999
22988.0     65.468   -61.505
23322.4     61.445  -104.933
23661.6     67.355  -145.877
