Freq[Hz]     dBSPL  Phase[Deg]
5.00000    -14.966   -15.216
5.07273    -14.603   -15.304
5.14651    -14.177   -15.406
5.22137    -13.732   -15.512
5.29732    -13.288   -15.621
5.37437    -12.843   -15.730
5.45254    -12.398   -15.842
5.53185    -11.954   -15.954
5.61231    -11.509   -16.069
5.69394    -11.064   -16.185
5.77676    -10.619   -16.303
5.86079    -10.175   -16.423
5.94604     -9.730   -16.545
6.03252     -9.285   -16.668
6.12027     -8.840   -16.793
6.20929     -8.395   -16.920
6.29961     -7.951   -17.049
6.39124     -7.506   -17.179
6.48420     -7.061   -17.312
6.57851     -6.616   -17.447
6.67420     -6.171   -17.583
6.77128     -5.726   -17.722
6.86977     -5.280   -17.863
6.96969     -4.835   -18.006
7.07107     -4.390   -18.150
7.17392     -3.945   -18.298
7.27827     -3.500   -18.447
7.38413     -3.055   -18.598
7.49154     -2.609   -18.752
7.60050     -2.164   -18.908
7.71105     -1.719   -19.066
7.82321     -1.273   -19.227
7.93701     -0.828   -19.390
8.05245     -0.382   -19.555
8.16958      0.063   -19.723
8.28841      0.509   -19.894
8.40896      0.955   -20.067
8.53128      1.400   -20.243
8.65537      1.846   -20.421
8.78126      2.292   -20.602
8.90899      2.738   -20.785
9.03857      3.184   -20.972
9.17004      3.630   -21.161
9.30342      4.076   -21.353
9.43874      4.522   -21.548
9.57603      4.968   -21.746
9.71532      5.414   -21.947
9.85663      5.860   -22.150
10.0000      6.307   -22.357
10.1455      6.753   -22.568
10.2930      7.200   -22.781
10.4427      7.646   -22.997
10.5946      8.093   -23.217
10.7487      8.540   -23.440
10.9051      8.987   -23.667
11.0637      9.433   -23.897
11.2246      9.880   -24.130
11.3879     10.328   -24.367
11.5535     10.775   -24.608
11.7216     11.222   -24.853
11.8921     11.669   -25.101
12.0650     12.117   -25.353
12.2405     12.564   -25.609
12.4186     13.012   -25.868
12.5992     13.460   -26.132
12.7825     13.908   -26.400
12.9684     14.356   -26.672
13.1570     14.804   -26.948
13.3484     15.252   -27.229
13.5426     15.700   -27.514
13.7395     16.149   -27.803
13.9394     16.597   -28.097
14.1421     17.046   -28.396
14.3478     17.495   -28.699
14.5565     17.944   -29.007
14.7683     18.393   -29.320
14.9831     18.843   -29.638
15.2010     19.292   -29.961
15.4221     19.742   -30.289
15.6464     20.192   -30.623
15.8740     20.642   -30.961
16.1049     21.092   -31.306
16.3392     21.542   -31.655
16.5768     21.993   -32.010
16.8179     22.443   -32.372
17.0626     22.894   -32.739
17.3107     23.345   -33.111
17.5625     23.796   -33.490
17.8180     24.248   -33.876
18.0771     24.700   -34.267
18.3401     25.152   -34.665
18.6068     25.604   -35.070
18.8775     26.056   -35.482
19.1521     26.509   -35.900
19.4306     26.962   -36.325
19.7133     27.415   -36.758
20.0000     27.868   -37.197
20.2909     28.335   -37.621
20.5860     28.878   -37.915
20.8855     29.513   -38.148
21.1893     30.149   -38.989
21.4975     30.689   -40.862
21.8102     31.100   -42.970
22.1274     31.390   -43.932
22.4492     31.622   -43.591
22.7758     31.951   -42.887
23.1071     32.448   -42.522
23.4432     33.027   -42.542
23.7841     33.585   -42.808
24.1301     34.106   -43.373
24.4811     34.601   -44.234
24.8372     35.067   -45.314
25.1984     35.511   -46.441
25.5649     35.952   -47.437
25.9368     36.412   -48.216
26.3141     36.915   -48.862
26.6968     37.456   -49.573
27.0851     37.992   -50.544
27.4791     38.486   -51.774
27.8788     38.941   -53.021
28.2843     39.383   -54.095
28.6957     39.822   -55.114
29.1131     40.267   -56.189
29.5365     40.724   -57.232
29.9661     41.207   -58.161
30.4020     41.723   -59.076
30.8442     42.257   -60.201
31.2929     42.765   -61.566
31.7480     43.215   -62.985
32.2098     43.649   -64.280
32.6783     44.116   -65.466
33.1536     44.607   -66.625
33.6359     45.096   -67.989
34.1251     45.615   -69.459
34.6215     46.184   -70.712
35.1250     46.721   -72.294
35.6359     47.149   -74.354
36.1543     47.486   -76.033
36.6802     47.869   -76.799
37.2137     48.358   -77.776
37.7550     48.916   -79.568
38.3041     49.461   -81.548
38.8613     49.963   -83.251
39.4265     50.427   -84.793
40.0000     50.879   -86.352
40.5818     51.340   -87.898
41.1721     51.823   -89.530
41.7710     52.323   -91.325
42.3785     52.815   -93.180
42.9949     53.287   -95.049
43.6203     53.760   -96.932
44.2548     54.258   -98.813
44.8985     54.763  -100.740
45.5515     55.247  -102.751
46.2141     55.719  -104.784
46.8863     56.210  -106.842
47.5683     56.706  -109.032
48.2602     57.166  -111.258
48.9621     57.602  -113.422
49.6743     58.057  -115.615
50.3968     58.547  -117.957
51.1299     59.036  -120.446
51.8736     59.507  -122.981
52.6281     59.960  -125.521
53.3936     60.404  -127.947
54.1702     60.851  -130.280
54.9581     61.309  -132.759
55.7575     61.760  -135.630
56.5685     62.192  -138.657
57.3914     62.606  -141.570
58.2261     63.017  -144.372
59.0730     63.421  -147.208
59.9323     63.813  -150.123
60.8040     64.203  -153.119
61.6884     64.598  -156.173
62.5857     64.991  -159.225
63.4960     65.367  -162.283
64.4196     65.720  -165.480
65.3566     66.047  -168.862
66.3073     66.355  -172.315
67.2717     66.653  -175.651
68.2502     66.944  -178.859
69.2429     67.226   177.982
70.2501     67.503   174.782
71.2719     67.782   171.523
72.3086     68.054   168.202
73.3603     68.293   164.798
74.4274     68.495   161.360
75.5099     68.691   158.019
76.6083     68.900   154.816
77.7226     69.104   151.632
78.8531     69.286   148.356
80.0000     69.446   145.024
81.1636     69.577   141.740
82.3442     69.683   138.518
83.5419     69.787   135.465
84.7570     69.902   132.572
85.9899     70.025   129.648
87.2406     70.147   126.591
88.5096     70.248   123.575
89.7970     70.323   120.665
91.1031     70.390   117.760
92.4282     70.455   114.885
93.7726     70.513   112.079
95.1366     70.562   109.348
96.5204     70.604   106.636
97.9243     70.636   103.972
99.3486     70.660   101.366
100.794     70.680    98.824
102.260     70.696    96.331
103.747     70.711    93.892
105.256     70.716    91.488
106.787     70.712    89.130
108.340     70.707    86.863
109.916     70.712    84.682
111.515     70.716    82.502
113.137     70.717    80.324
114.783     70.700    78.230
116.452     70.672    76.165
118.146     70.648    74.180
119.865     70.638    72.306
121.608     70.633    70.562
123.377     70.633    68.738
125.171     70.632    66.893
126.992     70.626    65.036
128.839     70.619    63.268
130.713     70.613    61.538
132.615     70.614    59.910
134.543     70.627    58.252
136.500     70.649    56.567
138.486     70.673    54.786
140.500     70.680    52.933
142.544     70.671    51.065
144.617     70.652    49.270
146.721     70.639    47.572
148.855     70.623    45.934
151.020     70.611    44.373
153.217     70.617    42.761
155.445     70.623    41.046
157.706     70.614    39.315
160.000     70.597    37.623
162.327     70.578    35.955
164.688     70.552    34.326
167.084     70.519    32.821
169.514     70.499    31.343
171.980     70.488    29.801
174.481     70.473    28.205
177.019     70.441    26.598
179.594     70.387    25.118
182.206     70.329    23.923
184.856     70.309    22.960
187.545     70.350    21.919
190.273     70.422    20.517
193.041     70.469    18.826
195.849     70.476    17.090
198.697     70.458    15.485
201.587     70.448    14.047
204.520     70.474    12.617
207.494     70.519    10.894
210.512     70.522     8.836
213.574     70.452     6.853
216.681     70.356     5.326
219.833     70.302     3.973
223.030     70.262     2.335
226.274     70.160     0.750
229.565     70.042    -0.172
232.905     70.020    -0.704
236.292     70.074    -1.663
239.729     70.122    -2.979
243.216     70.166    -4.440
246.754     70.209    -6.109
250.343     70.208    -8.097
253.984     70.141    -9.953
257.678     70.056   -11.500
261.426     69.972   -12.762
265.229     69.921   -13.838
269.087     69.927   -14.924
273.001     69.976   -16.480
276.972     69.966   -18.399
281.000     69.879   -20.216
285.088     69.762   -21.457
289.234     69.704   -22.335
293.441     69.720   -23.301
297.709     69.763   -24.677
302.040     69.770   -26.393
306.433     69.729   -28.180
310.890     69.649   -29.832
315.412     69.545   -31.026
320.000     69.511   -31.930
324.655     69.561   -32.992
329.377     69.629   -34.747
334.168     69.606   -36.786
339.028     69.536   -38.475
343.959     69.493   -39.668
348.962     69.547   -41.144
354.038     69.610   -43.401
359.188     69.564   -46.272
364.412     69.336   -48.840
369.713     69.051   -50.293
375.090     68.890   -50.848
380.546     68.868   -51.580
386.081     68.860   -53.124
391.697     68.748   -54.811
397.394     68.582   -55.987
403.175     68.532   -56.502
409.039     68.640   -57.593
414.989     68.719   -59.898
421.025     68.572   -62.944
427.149     68.221   -65.077
433.362     67.894   -65.369
439.665     67.794   -64.791
446.060     67.911   -64.723
452.548     68.077   -66.126
459.131     68.147   -68.604
465.809     67.976   -70.903
472.584     67.821   -71.684
479.458     67.839   -72.645
486.432     67.818   -74.085
493.507     67.695   -75.172
500.686     67.708   -75.612
507.968     67.939   -77.129
515.357     68.094   -79.708
522.853     68.084   -83.060
530.458     67.857   -86.131
538.174     67.557   -87.584
546.002     67.472   -88.438
553.943     67.395   -89.811
562.001     67.348   -90.479
570.175     67.441   -90.919
578.469     67.817   -93.456
586.883     67.875   -98.930
595.419     67.442  -104.165
604.080     66.853  -106.452
612.866     66.428  -105.987
621.780     66.241  -104.251
630.824     66.399  -103.874
640.000     66.735  -105.631
649.309     66.829  -109.192
658.753     66.640  -112.267
668.335     66.417  -114.190
678.056     66.258  -115.155
687.919     66.184  -116.313
697.925     66.328  -118.106
708.077     66.492  -121.073
718.376     66.597  -124.916
728.825     66.340  -129.709
739.426     65.862  -131.898
750.181     65.639  -132.460
761.093     65.748  -134.832
772.163     65.570  -139.970
783.394     64.957  -143.434
794.789     64.294  -143.539
806.349     64.057  -142.239
818.078     64.117  -141.998
829.977     64.111  -143.817
842.050     63.892  -143.337
854.298     64.142  -142.110
866.724     64.705  -144.617
879.330     64.856  -151.441
892.120     64.442  -154.873
905.097     64.121  -155.521
918.262     64.133  -157.389
931.618     64.054  -161.012
945.169     63.656  -162.268
958.917     63.417  -162.221
972.864     63.686  -162.663
987.015     64.118  -166.478
1001.37     64.047  -171.581
1015.94     63.500  -174.479
1030.71     63.043  -174.425
1045.71     63.059  -174.947
1060.92     63.426  -177.944
1076.35     63.668   178.291
1092.00     63.493   173.692
1107.89     62.883   169.816
1124.00     62.375   168.688
1140.35     62.487   166.554
1156.94     62.434   162.124
1173.77     61.980   161.096
1190.84     61.683   161.356
1208.16     61.561   159.208
1225.73     61.373   157.765
1243.56     61.465   157.786
1261.65     61.603   154.793
1280.00     61.404   151.136
1298.62     61.057   150.545
1317.51     61.304   150.033
1336.67     61.932   147.164
1356.11     62.356   141.502
1375.84     62.174   135.827
1395.85     61.748   132.355
1416.15     61.650   130.161
1436.75     61.673   126.322
1457.65     61.485   121.572
1478.85     61.081   116.952
1500.36     60.709   113.417
1522.19     59.964   111.575
1544.33     59.358   111.204
1566.79     59.128   113.866
1589.58     59.713   116.257
1612.70     60.383   115.114
1636.16     60.959   111.029
1659.95     61.312   105.309
1684.10     61.082    97.348
1708.60     60.471    92.228
1733.45     60.173    93.175
1758.66     60.565    93.995
1784.24     61.188    90.188
1810.19     61.303    83.999
1836.52     61.229    78.124
1863.24     60.873    74.507
1890.34     60.664    73.359
1917.83     60.631    71.071
1945.73     60.658    62.146
1974.03     60.422    54.952
2002.74     60.134    53.640
2031.87     60.119    52.993
2061.43     60.155    44.961
2091.41     59.939    33.533
2121.83     59.184    24.043
2152.69     58.134    20.060
2184.01     57.236    21.537
2215.77     57.166    23.061
2248.00     57.311    20.423
2280.70     57.150    13.279
2313.87     56.419     6.514
2347.53     55.779     1.687
2381.68     55.551    -0.666
2416.32     55.737    -2.147
2451.46     55.785    -6.462
2487.12     55.808   -11.326
2523.30     55.602   -15.698
2560.00     55.279   -18.648
2597.24     55.005   -24.063
2635.01     55.023   -24.713
2673.34     55.305   -20.402
2712.23     56.040   -21.755
2751.68     56.387   -32.544
2791.70     55.909   -40.871
2832.31     54.434   -41.927
2873.50     52.875   -42.398
2915.30     51.871   -46.301
2957.70     51.916   -53.872
3000.72     51.705   -61.362
3044.37     51.063   -63.456
3088.65     50.661   -60.253
3133.58     50.888   -61.002
3179.16     50.925   -67.927
3225.40     50.566   -72.919
3272.31     50.408   -71.191
3319.91     51.345   -69.543
3368.20     52.626   -75.221
3417.19     52.907   -84.424
3466.89     52.852   -89.222
3517.32     53.319   -92.848
3568.48     53.988   -99.881
3620.39     53.884  -111.993
3673.05     53.004  -123.717
3726.47     52.363  -129.118
3780.67     52.550  -134.575
3835.67     52.768  -143.431
3891.46     52.732  -153.524
3948.06     52.748  -159.933
4005.49     53.081  -167.034
4063.75     53.150  -174.110
4122.86     53.576   179.381
4182.82     54.595   169.397
4243.66     55.499   154.235
4305.39     55.740   136.525
4368.01     55.269   118.377
4431.55     54.222   102.625
4496.01     52.932    89.937
4561.40     51.693    81.262
4627.75     50.785    72.124
4695.06     49.788    59.941
4763.35     48.492    45.631
4832.64     46.753    35.255
4902.93     44.940    28.580
4974.24     43.171    20.417
5046.60     41.540    12.420
5120.00     41.015     5.547
5194.47     40.689     2.756
5270.03     39.994     5.601
5346.68     40.389     8.374
5424.45     40.759    -5.809
5503.35     38.803   -14.559
5583.40     34.801    -1.195
5664.61     35.811    20.446
5747.01     38.507     6.876
5830.60     39.579   -26.071
5915.41     40.702   -51.551
6001.45     41.587   -70.864
6088.74     41.116   -62.040
6177.30     38.648   -12.877
6267.15     38.039    25.229
6358.31     38.427    12.989
6450.80     39.431   -16.208
6544.62     39.849   -30.751
6639.82     41.595   -35.737
6736.40     43.343   -42.813
6834.38     43.524   -55.202
6933.79     41.129   -77.802
7034.64     37.456   -81.596
7136.96     35.782   -76.052
7240.77     37.965   -78.721
7346.09     41.076  -103.389
7452.94     42.495  -133.521
7561.35     42.289  -162.960
7671.33     41.584  -175.243
7782.91     41.682   178.666
7896.12     41.680   164.944
8010.97     40.502   137.670
8127.49     37.465   111.918
8245.71     34.337   113.896
8365.65     32.778   129.427
8487.33     34.398   137.391
8610.78     40.548   126.985
8736.03     45.256   116.748
8863.09     47.574   100.030
8992.01     47.543    73.555
9122.80     45.958    45.821
9255.50     43.110    24.822
9390.12     40.700    12.647
9526.70     39.653    -3.443
9665.27     39.301   -29.345
9805.86     39.263   -58.842
9948.49     39.144   -82.840
10093.2     38.094  -103.933
10240.0     37.541  -124.946
10388.9     37.842  -153.279
10540.1     36.952   165.273
10693.4     34.028   115.697
10848.9     31.147    70.294
11006.7     30.568    27.041
11166.8     30.149   -19.538
11329.2     29.264   -54.482
11494.0     31.503   -82.587
11661.2     34.338  -116.745
11830.8     36.344  -149.420
12002.9     38.094  -171.242
12177.5     39.473   163.004
12354.6     39.480   131.383
12534.3     38.864   108.169
12716.6     37.742    88.688
12901.6     35.894    72.514
13089.2     34.436    64.113
13279.6     35.789    54.329
13472.8     38.233    38.522
13668.8     39.780    14.290
13867.6     39.711   -15.251
14069.3     38.349   -45.703
14273.9     37.311   -45.621
14481.5     38.198   -32.335
14692.2     40.561   -35.464
14905.9     42.213   -71.487
15122.7     42.633  -110.707
15342.7     41.556  -146.244
15565.8     39.631  -172.612
15792.2     36.679  -179.442
16021.9     35.347   176.439
16255.0     36.309   157.512
16491.4     37.541   123.386
16731.3     37.533    93.701
16974.7     36.718    67.582
17221.6     35.615    44.256
17472.1     34.764    28.280
17726.2     34.599    20.251
17984.0     35.129    19.688
18245.6     36.434    15.119
18511.0     38.250    -1.136
18780.2     39.710   -26.960
19053.4     40.273   -51.097
19330.5     40.160   -69.224
19611.7     40.570   -85.274
19897.0     41.942  -101.373
20186.4     43.395  -122.476
20480.0     44.374  -150.100
20777.9     44.704   177.931
21080.1     44.044   146.611
21386.7     42.377   121.366
21697.8     41.609   106.722
22013.4     41.744    90.339
22333.6     41.173    64.880
22658.4     38.663    43.324
22988.0     35.138    39.268
23322.4     30.001    15.686
23661.6     36.787   -11.544
