Freq[Hz]     dBSPL  Phase[Deg]
5.00000     25.718  -114.582
5.07273     25.772  -115.578
5.14651     25.843  -116.874
5.22137     25.938  -118.615
5.29732     26.042  -120.538
5.37437     26.158  -122.668
5.45254     26.274  -124.797
5.53185     26.389  -126.926
5.61231     26.510  -129.027
5.69394     26.643  -131.062
5.77676     26.804  -132.938
5.86079     27.003  -134.591
5.94604     27.241  -136.020
6.03252     27.515  -137.226
6.12027     27.815  -138.276
6.20929     28.124  -139.262
6.29961     28.438  -140.221
6.39124     28.751  -141.181
6.48420     29.064  -142.141
6.57851     29.378  -143.100
6.67420     29.691  -144.061
6.77128     30.004  -145.021
6.86977     30.318  -145.981
6.96969     30.631  -146.942
7.07107     30.944  -147.903
7.17392     31.258  -148.864
7.27827     31.571  -149.825
7.38413     31.884  -150.787
7.49154     32.198  -151.749
7.60050     32.511  -152.711
7.71105     32.824  -153.673
7.82321     33.138  -154.636
7.93701     33.451  -155.598
8.05245     33.764  -156.561
8.16958     34.078  -157.525
8.28841     34.391  -158.488
8.40896     34.703  -159.444
8.53128     35.013  -160.383
8.65537     35.318  -161.276
8.78126     35.615  -162.106
8.90899     35.906  -162.871
9.03857     36.189  -163.570
9.17004     36.467  -164.222
9.30342     36.743  -164.854
9.43874     37.018  -165.478
9.57603     37.293  -166.101
9.71532     37.568  -166.724
9.85663     37.843  -167.348
10.0000     38.118  -167.972
10.1455     38.393  -168.597
10.2930     38.668  -169.221
10.4427     38.943  -169.846
10.5946     39.218  -170.472
10.7487     39.493  -171.097
10.9051     39.768  -171.723
11.0637     40.043  -172.350
11.2246     40.318  -172.975
11.3879     40.591  -173.599
11.5535     40.861  -174.219
11.7216     41.127  -174.831
11.8921     41.389  -175.437
12.0650     41.646  -176.035
12.2405     41.902  -176.630
12.4186     42.156  -177.222
12.5992     42.409  -177.814
12.7825     42.663  -178.406
12.9684     42.917  -178.999
13.1570     43.171  -179.592
13.3484     43.424   179.814
13.5426     43.678   179.220
13.7395     43.932   178.626
13.9394     44.185   178.031
14.1421     44.436   177.433
14.3478     44.685   176.831
14.5565     44.927   176.222
14.7683     45.164   175.605
14.9831     45.394   174.979
15.2010     45.619   174.347
15.4221     45.841   173.710
15.6464     46.063   173.072
15.8740     46.284   172.432
16.1049     46.505   171.792
16.3392     46.726   171.152
16.5768     46.947   170.511
16.8179     47.168   169.869
17.0626     47.390   169.225
17.3107     47.613   168.578
17.5625     47.837   167.926
17.8180     48.062   167.269
18.0771     48.289   166.608
18.3401     48.517   165.942
18.6068     48.745   165.275
18.8775     48.974   164.607
19.1521     49.202   163.938
19.4306     49.431   163.268
19.7133     49.659   162.596
20.0000     49.886   161.919
20.2909     50.113   161.235
20.5860     50.337   160.541
20.8855     50.560   159.836
21.1893     50.781   159.123
21.4975     51.002   158.403
21.8102     51.222   157.680
22.1274     51.442   156.955
22.4492     51.662   156.229
22.7758     51.882   155.500
23.1071     52.100   154.764
23.4432     52.317   154.019
23.7841     52.533   153.265
24.1301     52.747   152.502
24.4811     52.961   151.732
24.8372     53.174   150.959
25.1984     53.387   150.183
25.5649     53.599   149.405
25.9368     53.811   148.619
26.3141     54.021   147.825
26.6968     54.230   147.021
27.0851     54.437   146.207
27.4791     54.643   145.386
27.8788     54.849   144.560
28.2843     55.055   143.730
28.6957     55.260   142.896
29.1131     55.464   142.053
29.5365     55.667   141.201
29.9661     55.869   140.341
30.4020     56.070   139.473
30.8442     56.271   138.600
31.2929     56.471   137.721
31.7480     56.670   136.836
32.2098     56.869   135.942
32.6783     57.066   135.039
33.1536     57.262   134.127
33.6359     57.457   133.207
34.1251     57.652   132.282
34.6215     57.846   131.350
35.1250     58.039   130.410
35.6359     58.231   129.462
36.1543     58.421   128.506
36.6802     58.611   127.542
37.2137     58.801   126.571
37.7550     58.989   125.592
38.3041     59.176   124.605
38.8613     59.362   123.609
39.4265     59.548   122.604
40.0000     59.732   121.592
40.5818     59.916   120.572
41.1721     60.098   119.544
41.7710     60.280   118.507
42.3785     60.460   117.463
42.9949     60.640   116.410
43.6203     60.818   115.349
44.2548     60.996   114.280
44.8985     61.172   113.202
45.5515     61.347   112.116
46.2141     61.522   111.020
46.8863     61.695   109.915
47.5683     61.868   108.800
48.2602     62.040   107.675
48.9621     62.213   106.538
49.6743     62.385   105.391
50.3968     62.557   104.234
51.1299     62.730   103.066
51.8736     62.902   101.887
52.6281     63.073   100.697
53.3936     63.242    99.498
54.1702     63.410    98.290
54.9581     63.576    97.071
55.7575     63.741    95.843
56.5685     63.904    94.607
57.3914     64.066    93.362
58.2261     64.225    92.109
59.0730     64.384    90.849
59.9323     64.541    89.583
60.8040     64.696    88.310
61.6884     64.849    87.031
62.5857     65.000    85.744
63.4960     65.150    84.449
64.4196     65.297    83.146
65.3566     65.442    81.833
66.3073     65.586    80.509
67.2717     65.727    79.173
68.2502     65.866    77.825
69.2429     66.002    76.464
70.2501     66.137    75.090
71.2719     66.270    73.703
72.3086     66.402    72.304
73.3603     66.532    70.893
74.4274     66.661    69.471
75.5099     66.788    68.041
76.6083     66.915    66.602
77.7226     67.040    65.157
78.8531     67.164    63.705
80.0000     67.286    62.249
81.1636     67.407    60.787
82.3442     67.525    59.319
83.5419     67.641    57.845
84.7570     67.754    56.364
85.9899     67.866    54.875
87.2406     67.975    53.379
88.5096     68.081    51.875
89.7970     68.186    50.362
91.1031     68.288    48.840
92.4282     68.388    47.307
93.7726     68.487    45.763
95.1366     68.585    44.210
96.5204     68.681    42.649
97.9243     68.777    41.086
99.3486     68.871    39.525
100.794     68.962    37.964
102.260     69.050    36.403
103.747     69.135    34.835
105.256     69.216    33.254
106.787     69.296    31.660
108.340     69.376    30.053
109.916     69.454    28.440
111.515     69.532    26.826
113.137     69.607    25.213
114.783     69.680    23.599
116.452     69.750    21.981
118.146     69.818    20.353
119.865     69.884    18.713
121.608     69.948    17.063
123.377     70.011    15.407
125.171     70.074    13.747
126.992     70.135    12.088
128.839     70.195    10.429
130.713     70.252     8.769
132.615     70.308     7.106
134.543     70.362     5.440
136.500     70.415     3.775
138.486     70.466     2.113
140.500     70.516     0.453
142.544     70.564    -1.207
144.617     70.610    -2.867
146.721     70.655    -4.529
148.855     70.699    -6.193
151.020     70.741    -7.860
153.217     70.783    -9.530
155.445     70.825   -11.208
157.706     70.867   -12.897
160.000     70.911   -14.600
162.327     70.955   -16.318
164.688     71.000   -18.054
167.084     71.046   -19.813
169.514     71.092   -21.595
171.980     71.140   -23.406
174.481     71.188   -25.249
177.019     71.237   -27.125
179.594     71.285   -29.040
182.206     71.333   -30.996
184.856     71.381   -32.998
187.545     71.427   -35.049
190.273     71.472   -37.151
193.041     71.514   -39.308
195.849     71.554   -41.522
198.697     71.590   -43.793
201.587     71.622   -46.124
204.520     71.649   -48.514
207.494     71.670   -50.963
210.512     71.684   -53.468
213.574     71.691   -56.030
216.681     71.688   -58.644
219.833     71.676   -61.305
223.030     71.653   -64.010
226.274     71.620   -66.748
229.565     71.574   -69.513
232.905     71.516   -72.295
236.292     71.445   -75.083
239.729     71.361   -77.867
243.216     71.265   -80.633
246.754     71.157   -83.370
250.343     71.037   -86.061
253.984     70.906   -88.692
257.678     70.764   -91.248
261.426     70.611   -93.719
265.229     70.448   -96.093
269.087     70.278   -98.366
273.001     70.100  -100.534
276.972     69.918  -102.593
281.000     69.732  -104.544
285.088     69.544  -106.387
289.234     69.356  -108.128
293.441     69.169  -109.773
297.709     68.984  -111.328
302.040     68.803  -112.803
306.433     68.627  -114.206
310.890     68.458  -115.547
315.412     68.296  -116.838
320.000     68.143  -118.088
324.655     68.000  -119.308
329.377     67.869  -120.510
334.168     67.750  -121.703
339.028     67.644  -122.899
343.959     67.553  -124.111
348.962     67.478  -125.351
354.038     67.419  -126.637
359.188     67.377  -127.984
364.412     67.351  -129.408
369.713     67.340  -130.930
375.090     67.343  -132.563
380.546     67.358  -134.324
386.081     67.385  -136.226
391.697     67.422  -138.281
397.394     67.464  -140.497
403.175     67.510  -142.877
409.039     67.556  -145.420
414.989     67.597  -148.121
421.025     67.630  -150.970
427.149     67.652  -153.949
433.362     67.660  -157.043
439.665     67.650  -160.225
446.060     67.623  -163.470
452.548     67.575  -166.748
459.131     67.507  -170.026
465.809     67.418  -173.273
472.584     67.309  -176.460
479.458     67.184  -179.557
486.432     67.045   177.457
493.507     66.896   174.597
500.686     66.743   171.873
507.968     66.588   169.283
515.357     66.437   166.819
522.853     66.292   164.461
530.458     66.157   162.179
538.174     66.036   159.933
546.002     65.929   157.676
553.943     65.838   155.359
562.001     65.762   152.932
570.175     65.699   150.358
578.469     65.647   147.607
586.883     65.602   144.663
595.419     65.562   141.517
604.080     65.523   138.172
612.866     65.482   134.641
621.780     65.434   130.951
630.824     65.372   127.152
640.000     65.294   123.316
649.309     65.194   119.535
658.753     65.073   115.914
668.335     64.938   112.542
678.056     64.797   109.470
687.919     64.667   106.697
697.925     64.565   104.145
708.077     64.505   101.677
718.376     64.497    99.116
728.825     64.541    96.279
739.426     64.629    93.008
750.181     64.745    89.201
761.093     64.868    84.821
772.163     64.979    79.903
783.394     65.066    74.530
794.789     65.121    68.813
806.349     65.143    62.867
818.078     65.136    56.787
829.977     65.107    50.627
842.050     65.059    44.405
854.298     64.995    38.099
866.724     64.914    31.641
879.330     64.807    24.948
892.120     64.666    17.945
905.097     64.476    10.583
918.262     64.220     2.886
931.618     63.879    -4.995
945.169     63.437   -12.745
958.917     62.887   -19.824
972.864     62.238   -25.522
987.015     61.528   -29.185
1001.37     60.817   -30.527
1015.94     60.179   -29.850
1030.71     59.683   -28.036
1045.71     59.380   -26.346
1060.92     59.274   -26.075
1076.35     59.315   -28.131
1092.00     59.416   -32.883
1107.89     59.481   -39.982
1124.00     59.445   -48.329
1140.35     59.293   -56.648
1156.94     59.054   -63.824
1173.77     58.790   -69.186
1190.84     58.554   -72.908
1208.16     58.361   -75.638
1225.73     58.223   -78.113
1243.56     58.162   -81.132
1261.65     58.205   -85.291
1280.00     58.354   -90.922
1298.62     58.556   -98.081
1317.51     58.741  -106.353
1336.67     58.849  -115.124
1356.11     58.844  -123.864
1375.84     58.731  -132.068
1395.85     58.535  -139.449
1416.15     58.288  -145.906
1436.75     58.031  -151.468
1457.65     57.798  -156.455
1478.85     57.612  -161.234
1500.36     57.501  -166.115
1522.19     57.473  -171.453
1544.33     57.528  -177.449
1566.79     57.647   175.780
1589.58     57.793   168.286
1612.70     57.947   160.261
1636.16     58.081   151.843
1659.95     58.185   143.172
1684.10     58.247   134.349
1708.60     58.255   125.362
1733.45     58.225   116.290
1758.66     58.172   107.157
1784.24     58.135    98.013
1810.19     58.142    88.718
1836.52     58.189    79.088
1863.24     58.275    68.962
1890.34     58.355    58.150
1917.83     58.409    46.864
1945.73     58.416    35.378
1974.03     58.364    24.073
2002.74     58.270    13.266
2031.87     58.146     2.674
2061.43     58.007    -8.138
2091.41     57.865   -19.662
2121.83     57.715   -32.255
2152.69     57.538   -45.847
2184.01     57.289   -59.990
2215.77     56.931   -73.821
2248.00     56.467   -86.333
2280.70     55.953   -96.908
2313.87     55.471  -105.734
2347.53     55.076  -113.838
2381.68     54.758  -122.794
2416.32     54.434  -133.787
2451.46     54.024  -146.433
2487.12     53.538  -159.386
2523.30     53.058  -171.315
2560.00     52.694   178.424
2597.24     52.515   168.746
2635.01     52.454   157.411
2673.34     52.324   143.215
2712.23     51.946   126.315
2751.68     51.231   107.952
2791.70     50.185    90.148
2832.31     48.892    74.468
2873.50     47.508    62.655
2915.30     46.239    56.611
2957.70     45.404    56.120
3000.72     45.296    58.302
3044.37     45.734    58.312
3088.65     46.089    53.445
3133.58     46.062    44.617
3179.16     45.566    31.678
3225.40     44.361    11.214
3272.31     42.296   -23.536
3319.91     40.530   -87.629
3368.20     43.434  -168.748
3417.19     47.406   129.014
3466.89     49.650    77.929
3517.32     50.619    34.511
3568.48     51.035    -0.260
3620.39     51.449   -26.346
3673.05     52.030   -46.639
3726.47     52.687   -64.446
3780.67     53.323   -82.075
3835.67     53.891  -100.747
3891.46     54.394  -120.158
3948.06     54.839  -139.795
4005.49     55.220  -159.359
4063.75     55.521  -178.747
4122.86     55.714   162.113
4182.82     55.807   143.650
4243.66     55.853   126.074
4305.39     55.922   109.217
4368.01     56.049    92.604
4431.55     56.212    75.372
4496.01     56.369    56.748
4561.40     56.452    36.692
4627.75     56.448    15.923
4695.06     56.397    -4.967
4763.35     56.318   -25.510
4832.64     56.236   -45.632
4902.93     56.127   -65.937
4974.24     55.943   -86.508
5046.60     55.663  -106.944
5120.00     55.289  -126.597
5194.47     54.880  -144.769
5270.03     54.534  -161.470
5346.68     54.346  -177.343
5424.45     54.372   166.121
5503.35     54.533   147.596
5583.40     54.734   126.699
5664.61     54.889   103.593
5747.01     54.885    79.509
5830.60     54.716    56.128
5915.41     54.495    33.906
6001.45     54.293    12.178
6088.74     54.108    -9.774
6177.30     53.908   -32.522
6267.15     53.667   -56.080
6358.31     53.389   -79.702
6450.80     53.102  -102.980
6544.62     52.848  -125.893
6639.82     52.648  -148.689
6736.40     52.475  -171.984
6834.38     52.321   164.247
6933.79     52.198   139.908
7034.64     52.087   114.858
7136.96     51.979    89.252
7240.77     51.882    62.597
7346.09     51.752    34.676
7452.94     51.571     5.955
7561.35     51.345   -23.992
7671.33     51.068   -48.733
7782.91     50.728   -71.864
7896.12     50.359   -80.007
8010.97     49.926   -91.381
8127.49     49.423  -117.122
8245.71     48.870  -152.723
8365.65     48.294   140.647
8487.33     47.722    49.490
8610.78     47.188   -37.743
8736.03     46.733  -121.681
8863.09     46.409  -175.351
8992.01     46.258   164.951
9122.80     46.244   175.196
9255.50     46.320  -162.085
9390.12     46.473  -146.315
9526.70     46.663  -153.214
9665.27     46.904   169.888
9805.86     47.210   102.785
9948.49     47.531    33.041
10093.2     47.850   -40.446
10240.0     48.116  -119.408
10388.9     48.315   166.715
10540.1     48.462    93.025
10693.4     48.544    16.096
10848.9     48.560   -49.021
11006.7     48.500  -104.773
11166.8     48.351  -150.398
11329.2     48.117   167.786
11494.0     47.816   126.897
11661.2     47.483    85.691
11830.8     47.181    44.167
12002.9     46.944     2.213
12177.5     46.772   -40.218
12354.6     46.648   -83.664
12534.3     46.568  -131.251
12716.6     46.478   179.270
12901.6     46.362   127.482
13089.2     46.242    94.398
13279.6     46.092    86.696
13472.8     45.873   112.636
13668.8     45.605   153.853
13867.6     45.271  -152.759
14069.3     44.863  -111.688
14273.9     44.410   -89.078
14481.5     43.925   -78.981
14692.2     43.427   -86.436
14905.9     42.995  -109.018
15122.7     42.643  -121.516
15342.7     42.400  -139.101
15565.8     42.308  -140.235
15792.2     42.335  -117.452
16021.9     42.494   -80.543
16255.0     42.726   -31.656
16491.4     42.937    28.703
16731.3     43.078    97.421
16974.7     43.086   165.664
17221.6     42.982  -122.873
17472.1     42.833   -50.409
17726.2     42.690    -1.732
17984.0     42.604    19.559
18245.6     42.584    15.475
18511.0     42.587   -26.774
18780.2     42.570   -90.271
19053.4     42.449  -161.770
19330.5     42.197   126.393
19611.7     41.741    65.664
19897.0     41.149     9.597
20186.4     40.506   -54.311
20480.0     39.844  -106.902
20777.9     39.203  -155.508
21080.1     38.755   148.931
21386.7     38.322   106.524
21697.8     37.706    66.591
22013.4     37.049    29.653
22333.6     36.235     1.771
22658.4     34.961   -11.303
22988.0     33.603    -1.189
23322.4     32.189    25.620
23661.6     30.784    45.488
