Freq[Hz]     dBSPL  Phase[Deg]
5.00000     24.117  -112.978
5.07273     24.172  -113.966
5.14651     24.244  -115.250
5.22137     24.341  -116.976
5.29732     24.447  -118.881
5.37437     24.565  -120.991
5.45254     24.682  -123.101
5.53185     24.800  -125.211
5.61231     24.923  -127.292
5.69394     25.058  -129.308
5.77676     25.221  -131.160
5.86079     25.424  -132.787
5.94604     25.666  -134.186
6.03252     25.945  -135.361
6.12027     26.250  -136.376
6.20929     26.564  -137.326
6.29961     26.883  -138.250
6.39124     27.201  -139.173
6.48420     27.520  -140.097
6.57851     27.838  -141.021
6.67420     28.157  -141.945
6.77128     28.475  -142.869
6.86977     28.794  -143.794
6.96969     29.112  -144.718
7.07107     29.431  -145.643
7.17392     29.749  -146.569
7.27827     30.068  -147.494
7.38413     30.386  -148.419
7.49154     30.705  -149.345
7.60050     31.023  -150.271
7.71105     31.342  -151.198
7.82321     31.660  -152.124
7.93701     31.979  -153.051
8.05245     32.297  -153.978
8.16958     32.616  -154.905
8.28841     32.934  -155.833
8.40896     33.252  -156.752
8.53128     33.567  -157.653
8.65537     33.878  -158.507
8.78126     34.182  -159.293
8.90899     34.480  -160.010
9.03857     34.771  -160.658
9.17004     35.059  -161.256
9.30342     35.344  -161.832
9.43874     35.628  -162.400
9.57603     35.912  -162.967
9.71532     36.197  -163.535
9.85663     36.481  -164.103
10.0000     36.766  -164.671
10.1455     37.050  -165.239
10.2930     37.334  -165.808
10.4427     37.619  -166.377
10.5946     37.903  -166.946
10.7487     38.187  -167.516
10.9051     38.472  -168.086
11.0637     38.756  -168.657
11.2246     39.040  -169.226
11.3879     39.323  -169.792
11.5535     39.603  -170.351
11.7216     39.880  -170.898
11.8921     40.154  -171.434
12.0650     40.425  -171.959
12.2405     40.694  -172.477
12.4186     40.961  -172.991
12.5992     41.229  -173.505
12.7825     41.496  -174.019
12.9684     41.764  -174.533
13.1570     42.031  -175.048
13.3484     42.299  -175.563
13.5426     42.566  -176.079
13.7395     42.833  -176.595
13.9394     43.101  -177.111
14.1421     43.368  -177.628
14.3478     43.633  -178.146
14.5565     43.897  -178.663
14.7683     44.160  -179.181
14.9831     44.420  -179.699
15.2010     44.679   179.782
15.4221     44.937   179.263
15.6464     45.195   178.744
15.8740     45.452   178.224
16.1049     45.710   177.703
16.3392     45.967   177.182
16.5768     46.225   176.661
16.8179     46.483   176.138
17.0626     46.740   175.615
17.3107     46.995   175.088
17.5625     47.250   174.558
17.8180     47.503   174.025
18.0771     47.755   173.487
18.3401     48.006   172.947
18.6068     48.256   172.405
18.8775     48.506   171.862
19.1521     48.757   171.319
19.4306     49.007   170.775
19.7133     49.257   170.229
20.0000     49.506   169.680
20.2909     49.755   169.126
20.5860     50.002   168.566
20.8855     50.249   167.999
21.1893     50.494   167.426
21.4975     50.739   166.848
21.8102     50.983   166.269
22.1274     51.228   165.688
22.4492     51.472   165.106
22.7758     51.716   164.521
23.1071     51.959   163.932
23.4432     52.201   163.337
23.7841     52.442   162.736
24.1301     52.682   162.128
24.4811     52.922   161.516
24.8372     53.161   160.901
25.1984     53.400   160.285
25.5649     53.639   159.666
25.9368     53.877   159.042
26.3141     54.114   158.411
26.6968     54.350   157.772
27.0851     54.584   157.126
27.4791     54.818   156.475
27.8788     55.052   155.820
28.2843     55.285   155.162
28.6957     55.517   154.500
29.1131     55.749   153.832
29.5365     55.980   153.157
29.9661     56.210   152.474
30.4020     56.440   151.786
30.8442     56.669   151.093
31.2929     56.897   150.396
31.7480     57.125   149.693
32.2098     57.351   148.983
32.6783     57.577   148.265
33.1536     57.802   147.540
33.6359     58.026   146.808
34.1251     58.249   146.072
34.6215     58.471   145.330
35.1250     58.693   144.580
35.6359     58.913   143.824
36.1543     59.132   143.061
36.6802     59.351   142.291
37.2137     59.568   141.515
37.7550     59.785   140.732
38.3041     60.000   139.941
38.8613     60.214   139.143
39.4265     60.428   138.336
40.0000     60.640   137.523
40.5818     60.851   136.703
41.1721     61.061   135.875
41.7710     61.270   135.040
42.3785     61.478   134.197
42.9949     61.684   133.347
43.6203     61.890   132.489
44.2548     62.093   131.624
44.8985     62.296   130.751
45.5515     62.497   129.870
46.2141     62.697   128.980
46.8863     62.896   128.081
47.5683     63.094   127.173
48.2602     63.291   126.255
48.9621     63.486   125.327
49.6743     63.680   124.389
50.3968     63.872   123.441
51.1299     64.063   122.484
51.8736     64.252   121.516
52.6281     64.440   120.538
53.3936     64.626   119.551
54.1702     64.812   118.555
54.9581     64.996   117.550
55.7575     65.178   116.537
56.5685     65.359   115.515
57.3914     65.539   114.486
58.2261     65.717   113.450
59.0730     65.894   112.408
59.9323     66.069   111.360
60.8040     66.242   110.306
61.6884     66.413   109.247
62.5857     66.582   108.181
63.4960     66.749   107.108
64.4196     66.913   106.028
65.3566     67.075   104.939
66.3073     67.234   103.841
67.2717     67.390   102.731
68.2502     67.544   101.611
69.2429     67.696   100.479
70.2501     67.845    99.335
71.2719     67.991    98.181
72.3086     68.135    97.015
73.3603     68.278    95.839
74.4274     68.418    94.655
75.5099     68.557    93.463
76.6083     68.695    92.265
77.7226     68.830    91.062
78.8531     68.963    89.856
80.0000     69.094    88.646
81.1636     69.221    87.433
82.3442     69.347    86.217
83.5419     69.469    84.997
84.7570     69.588    83.772
85.9899     69.705    82.542
87.2406     69.818    81.308
88.5096     69.928    80.069
89.7970     70.035    78.824
91.1031     70.140    77.574
92.4282     70.241    76.315
93.7726     70.341    75.050
95.1366     70.438    73.778
96.5204     70.534    72.503
97.9243     70.628    71.230
99.3486     70.719    69.963
100.794     70.807    68.700
102.260     70.891    67.442
103.747     70.971    66.182
105.256     71.047    64.914
106.787     71.121    63.638
108.340     71.193    62.355
109.916     71.263    61.072
111.515     71.332    59.793
113.137     71.398    58.522
114.783     71.460    57.257
116.452     71.519    55.995
118.146     71.574    54.729
119.865     71.627    53.461
121.608     71.677    52.189
123.377     71.726    50.920
125.171     71.772    49.657
126.992     71.817    48.403
128.839     71.859    47.159
130.713     71.898    45.925
132.615     71.934    44.698
134.543     71.968    43.481
136.500     71.999    42.276
138.486     72.028    41.087
140.500     72.054    39.913
142.544     72.078    38.755
144.617     72.100    37.610
146.721     72.119    36.480
148.855     72.137    35.363
151.020     72.154    34.262
153.217     72.170    33.176
155.445     72.184    32.104
157.706     72.198    31.042
160.000     72.211    29.991
162.327     72.223    28.949
164.688     72.235    27.915
167.084     72.247    26.886
169.514     72.258    25.863
171.980     72.268    24.843
174.481     72.278    23.825
177.019     72.287    22.809
179.594     72.295    21.792
182.206     72.302    20.773
184.856     72.307    19.751
187.545     72.311    18.727
190.273     72.313    17.702
193.041     72.312    16.673
195.849     72.308    15.642
198.697     72.302    14.611
201.587     72.292    13.581
204.520     72.279    12.554
207.494     72.263    11.533
210.512     72.242    10.524
213.574     72.217     9.526
216.681     72.187     8.547
219.833     72.154     7.589
223.030     72.117     6.656
226.274     72.076     5.753
229.565     72.033     4.884
232.905     71.988     4.051
236.292     71.941     3.256
239.729     71.894     2.501
243.216     71.847     1.785
246.754     71.802     1.109
250.343     71.759     0.469
253.984     71.719    -0.136
257.678     71.684    -0.713
261.426     71.653    -1.268
265.229     71.628    -1.808
269.087     71.608    -2.341
273.001     71.593    -2.877
276.972     71.583    -3.422
281.000     71.578    -3.984
285.088     71.576    -4.570
289.234     71.578    -5.186
293.441     71.581    -5.835
297.709     71.584    -6.519
302.040     71.587    -7.238
306.433     71.587    -7.989
310.890     71.583    -8.768
315.412     71.575    -9.570
320.000     71.563   -10.385
324.655     71.544   -11.208
329.377     71.520   -12.027
334.168     71.490   -12.834
339.028     71.455   -13.619
343.959     71.416   -14.377
348.962     71.373   -15.098
354.038     71.329   -15.779
359.188     71.284   -16.417
364.412     71.240   -17.010
369.713     71.199   -17.561
375.090     71.162   -18.076
380.546     71.130   -18.559
386.081     71.105   -19.022
391.697     71.087   -19.472
397.394     71.076   -19.921
403.175     71.071   -20.380
409.039     71.073   -20.856
414.989     71.080   -21.359
421.025     71.090   -21.894
427.149     71.103   -22.465
433.362     71.117   -23.073
439.665     71.130   -23.716
446.060     71.141   -24.390
452.548     71.151   -25.089
459.131     71.158   -25.806
465.809     71.163   -26.537
472.584     71.165   -27.276
479.458     71.166   -28.020
486.432     71.166   -28.769
493.507     71.167   -29.525
500.686     71.169   -30.294
507.968     71.171   -31.082
515.357     71.173   -31.899
522.853     71.175   -32.748
530.458     71.173   -33.632
538.174     71.166   -34.547
546.002     71.152   -35.482
553.943     71.130   -36.419
562.001     71.099   -37.337
570.175     71.061   -38.212
578.469     71.019   -39.025
586.883     70.977   -39.763
595.419     70.939   -40.428
604.080     70.911   -41.034
612.866     70.894   -41.604
621.780     70.891   -42.174
630.824     70.901   -42.773
640.000     70.918   -43.424
649.309     70.940   -44.135
658.753     70.962   -44.895
668.335     70.980   -45.680
678.056     70.996   -46.460
687.919     71.012   -47.208
697.925     71.034   -47.919
708.077     71.067   -48.610
718.376     71.116   -49.324
728.825     71.182   -50.116
739.426     71.260   -51.043
750.181     71.343   -52.137
761.093     71.420   -53.407
772.163     71.482   -54.825
783.394     71.525   -56.337
794.789     71.548   -57.882
806.349     71.555   -59.401
818.078     71.553   -60.856
829.977     71.549   -62.239
842.050     71.548   -63.564
854.298     71.552   -64.853
866.724     71.561   -66.128
879.330     71.573   -67.406
892.120     71.589   -68.689
905.097     71.610   -69.983
918.262     71.639   -71.303
931.618     71.677   -72.680
945.169     71.724   -74.166
958.917     71.773   -75.804
972.864     71.814   -77.610
987.015     71.835   -79.559
1001.37     71.830   -81.580
1015.94     71.799   -83.587
1030.71     71.750   -85.505
1045.71     71.694   -87.303
1060.92     71.645   -88.995
1076.35     71.608   -90.622
1092.00     71.587   -92.242
1107.89     71.577   -93.894
1124.00     71.574   -95.582
1140.35     71.572   -97.314
1156.94     71.568   -99.080
1173.77     71.559  -100.869
1190.84     71.547  -102.683
1208.16     71.530  -104.504
1225.73     71.516  -106.317
1243.56     71.507  -108.122
1261.65     71.511  -109.919
1280.00     71.528  -111.743
1298.62     71.558  -113.639
1317.51     71.596  -115.647
1336.67     71.635  -117.782
1356.11     71.668  -120.030
1375.84     71.693  -122.367
1395.85     71.706  -124.755
1416.15     71.710  -127.158
1436.75     71.707  -129.550
1457.65     71.700  -131.899
1478.85     71.695  -134.199
1500.36     71.696  -136.478
1522.19     71.709  -138.775
1544.33     71.738  -141.170
1566.79     71.778  -143.732
1589.58     71.827  -146.479
1612.70     71.877  -149.430
1636.16     71.918  -152.538
1659.95     71.943  -155.732
1684.10     71.944  -158.945
1708.60     71.924  -162.100
1733.45     71.884  -165.169
1758.66     71.831  -168.142
1784.24     71.778  -171.041
1810.19     71.733  -173.941
1836.52     71.700  -176.889
1863.24     71.678  -179.946
1890.34     71.658   176.863
1917.83     71.635   173.569
1945.73     71.599   170.186
1974.03     71.544   166.773
2002.74     71.474   163.406
2031.87     71.393   160.083
2061.43     71.305   156.817
2091.41     71.209   153.637
2121.83     71.103   150.575
2152.69     70.985   147.675
2184.01     70.859   144.965
2215.77     70.736   142.466
2248.00     70.640   140.120
2280.70     70.587   137.812
2313.87     70.586   135.426
2347.53     70.629   132.852
2381.68     70.695   130.076
2416.32     70.759   127.169
2451.46     70.807   124.219
2487.12     70.834   121.275
2523.30     70.843   118.314
2560.00     70.842   115.313
2597.24     70.837   112.230
2635.01     70.831   109.041
2673.34     70.824   105.745
2712.23     70.802   102.318
2751.68     70.753    98.832
2791.70     70.670    95.411
2832.31     70.553    92.255
2873.50     70.428    89.638
2915.30     70.332    87.585
2957.70     70.292    85.917
3000.72     70.321    84.262
3044.37     70.399    82.086
3088.65     70.484    79.065
3133.58     70.527    75.168
3179.16     70.487    70.722
3225.40     70.352    66.439
3272.31     70.150    63.084
3319.91     69.942    61.178
3368.20     69.804    60.692
3417.19     69.786    60.939
3466.89     69.871    60.833
3517.32     69.978    59.462
3568.48     70.013    56.564
3620.39     69.917    52.708
3673.05     69.716    49.063
3726.47     69.504    46.707
3780.67     69.405    46.018
3835.67     69.500    46.444
3891.46     69.768    46.741
3948.06     70.104    45.865
4005.49     70.394    43.436
4063.75     70.577    39.792
4122.86     70.657    35.875
4182.82     70.686    32.600
4243.66     70.735    30.295
4305.39     70.836    28.612
4368.01     70.968    26.832
4431.55     71.083    24.385
4496.01     71.142    21.168
4561.40     71.150    17.567
4627.75     71.153    14.064
4695.06     71.194    10.926
4763.35     71.284     8.051
4832.64     71.396     5.022
4902.93     71.479     1.584
4974.24     71.501    -2.259
5046.60     71.443    -6.290
5120.00     71.308   -10.116
5194.47     71.117   -13.485
5270.03     70.893   -16.299
5346.68     70.672   -18.602
5424.45     70.493   -20.524
5503.35     70.386   -22.212
5583.40     70.359   -23.966
5664.61     70.353   -26.143
5747.01     70.273   -28.619
5830.60     70.098   -30.817
5915.41     69.887   -32.378
6001.45     69.691   -33.389
6088.74     69.528   -34.237
6177.30     69.390   -35.221
6267.15     69.280   -36.282
6358.31     69.205   -37.369
6450.80     69.165   -38.398
6544.62     69.157   -39.303
6639.82     69.186   -40.269
6736.40     69.232   -41.566
6834.38     69.270   -43.247
6933.79     69.301   -45.199
7034.64     69.335   -47.348
7136.96     69.367   -49.550
7240.77     69.390   -51.794
7346.09     69.395   -54.195
7452.94     69.379   -56.750
7561.35     69.334   -59.435
7671.33     69.253   -62.144
7782.91     69.151   -64.726
7896.12     69.037   -67.123
8010.97     68.922   -69.204
8127.49     68.818   -71.020
8245.71     68.726   -72.659
8365.65     68.655   -74.118
8487.33     68.602   -75.504
8610.78     68.565   -76.766
8736.03     68.555   -77.956
8863.09     68.560   -79.272
8992.01     68.553   -80.665
9122.80     68.545   -82.116
9255.50     68.549   -83.721
9390.12     68.554   -85.318
9526.70     68.590   -86.840
9665.27     68.680   -88.620
9805.86     68.782   -90.704
9948.49     68.868   -92.836
10093.2     68.950   -94.968
10240.0     69.035   -96.885
10388.9     69.151   -98.398
10540.1     69.333   -99.861
10693.4     69.574  -101.742
10848.9     69.830  -104.320
11006.7     70.048  -107.874
11166.8     70.180  -112.376
11329.2     70.203  -117.493
11494.0     70.124  -122.823
11661.2     69.984  -128.020
11830.8     69.825  -132.907
12002.9     69.671  -137.295
12177.5     69.537  -141.156
12354.6     69.414  -144.494
12534.3     69.300  -147.247
12716.6     69.202  -149.574
12901.6     69.136  -151.655
13089.2     69.109  -153.740
13279.6     69.114  -156.086
13472.8     69.133  -158.788
13668.8     69.141  -161.829
13867.6     69.110  -165.086
14069.3     69.014  -168.349
14273.9     68.844  -171.376
14481.5     68.619  -174.057
14692.2     68.372  -176.365
14905.9     68.161  -178.455
15122.7     68.025   179.374
15342.7     67.970   176.907
15565.8     67.966   174.016
15792.2     67.968   170.781
16021.9     67.940   167.421
16255.0     67.867   164.120
16491.4     67.746   161.086
16731.3     67.599   158.354
16974.7     67.447   155.837
17221.6     67.313   153.407
17472.1     67.222   150.856
17726.2     67.184   148.023
17984.0     67.185   144.831
18245.6     67.213   141.341
18511.0     67.245   137.662
18780.2     67.277   133.908
19053.4     67.315   130.159
19330.5     67.348   126.399
19611.7     67.374   122.610
19897.0     67.367   118.901
20186.4     67.334   115.175
20480.0     67.281   111.476
20777.9     67.205   107.648
21080.1     67.112   103.482
21386.7     66.943    99.068
21697.8     66.639    94.616
22013.4     66.155    90.557
22333.6     65.423    87.514
22658.4     64.466    85.580
22988.0     63.330    84.897
23322.4     62.150    84.428
23661.6     61.074    83.103
