Freq[Hz]     dBSPL  Phase[Deg]
5.00000    -30.388   104.600
5.07273    -26.975    99.083
5.14651    -24.264    93.585
5.22137    -23.514    88.137
5.29732    -22.763    82.690
5.37437    -22.013    77.243
5.45254    -21.263    71.795
5.53185    -20.928    65.321
5.61231    -21.033    57.759
5.69394    -21.138    50.197
5.77676    -21.243    42.635
5.86079    -21.358    34.953
5.94604    -22.061    20.168
6.03252    -22.765     5.383
6.12027    -23.469    -9.402
6.20929    -24.172   -24.187
6.29961    -23.688   -43.921
6.39124    -22.941   -64.751
6.48420    -22.193   -85.582
6.57851    -21.445  -106.412
6.67420    -20.510  -120.012
6.77128    -19.544  -132.437
6.86977    -18.579  -144.862
6.96969    -17.726  -157.217
7.07107    -17.737  -169.037
7.17392    -17.748   179.143
7.27827    -17.759   167.323
7.38413    -18.135   149.778
7.49154    -18.791   127.809
7.60050    -19.448   105.840
7.71105    -19.652    83.366
7.82321    -17.867    58.670
7.93701    -16.083    33.975
8.05245    -14.298     9.279
8.16958    -12.768    -3.352
8.28841    -11.247   -15.534
8.40896     -9.726   -27.715
8.53128     -9.401   -37.291
8.65537     -9.231   -46.532
8.78126     -9.061   -55.772
8.90899    -12.357   -68.412
9.03857    -15.879   -81.274
9.17004    -18.458   -99.931
9.30342    -13.525  -164.710
9.43874     -8.593   130.510
9.57603     -4.161    88.114
9.71532     -0.494    79.915
9.85663      3.174    71.717
10.0000      5.668    64.359
10.1455      7.835    57.235
10.2930      9.818    50.231
10.4427     11.285    43.562
10.5946     12.753    36.894
10.7487     13.864    30.601
10.9051     14.905    24.384
11.0637     15.790    18.443
11.2246     16.509    12.795
11.3879     17.175     7.304
11.5535     17.646     2.385
11.7216     18.113    -2.520
11.8921     18.399    -6.577
12.0650     18.685   -10.634
12.2405     18.863   -13.896
12.4186     19.027   -17.054
12.5992     19.132   -19.548
12.7825     19.223   -21.893
12.9684     19.273   -23.659
13.1570     19.313   -25.289
13.3484     19.321   -26.236
13.5426     19.324   -27.073
13.7395     19.335   -26.913
13.9394     19.362   -26.598
14.1421     19.498   -25.402
14.3478     19.706   -24.166
14.5565     20.067   -22.844
14.7683     20.527   -22.179
14.9831     21.061   -22.021
15.2010     21.576   -23.341
15.4221     22.048   -25.155
15.6464     22.344   -28.025
15.8740     22.448   -31.025
16.1049     22.397   -34.129
16.3392     21.958   -35.874
16.5768     21.395   -35.997
16.8179     20.673   -33.839
17.0626     20.265   -26.767
17.3107     20.328   -18.654
17.5625     21.046    -9.922
17.8180     22.336    -6.048
18.0771     23.585    -4.923
18.3401     24.711    -6.382
18.6068     25.470    -9.865
18.8775     25.925   -13.638
19.1521     26.149   -17.138
19.4306     26.175   -19.930
19.7133     26.084   -21.113
20.0000     26.079   -21.079
20.2909     26.222   -20.584
20.5860     26.528   -20.272
20.8855     26.956   -20.848
21.1893     27.365   -22.807
21.4975     27.646   -25.420
21.8102     27.785   -28.032
22.1274     27.807   -30.041
22.4492     27.785   -30.972
22.7758     27.825   -30.658
23.1071     28.037   -29.409
23.4432     28.471   -27.963
23.7841     29.093   -27.066
24.1301     29.793   -26.897
24.4811     30.514   -27.267
24.8372     31.226   -27.930
25.1984     31.923   -28.693
25.5649     32.604   -29.439
25.9368     33.265   -30.076
26.3141     33.902   -30.490
26.6968     34.520   -30.567
27.0851     35.139   -30.255
27.4791     35.771   -29.605
27.8788     36.421   -28.774
28.2843     37.075   -27.910
28.6957     37.716   -27.069
29.1131     38.335   -26.260
29.5365     38.936   -25.514
29.9661     39.524   -24.939
30.4020     40.096   -24.689
30.8442     40.629   -24.899
31.2929     41.110   -25.440
31.7480     41.543   -26.121
32.2098     41.953   -26.762
32.6783     42.392   -27.311
33.1536     42.891   -27.947
33.6359     43.449   -28.867
34.1251     44.042   -30.177
34.6215     44.641   -31.718
35.1250     45.246   -33.270
35.6359     45.881   -34.736
36.1543     46.553   -36.197
36.6802     47.252   -37.750
37.2137     47.955   -39.375
37.7550     48.653   -40.965
38.3041     49.358   -42.482
38.8613     50.070   -44.019
39.4265     50.781   -45.668
40.0000     51.480   -47.419
40.5818     52.174   -49.272
41.1721     52.866   -51.326
41.7710     53.547   -53.645
42.3785     54.189   -56.173
42.9949     54.802   -58.682
43.6203     55.413   -61.096
44.2548     56.046   -63.525
44.8985     56.689   -66.110
45.5515     57.329   -68.826
46.2141     57.962   -71.618
46.8863     58.590   -74.508
47.5683     59.212   -77.555
48.2602     59.815   -80.735
48.9621     60.405   -84.034
49.6743     60.983   -87.501
50.3968     61.536   -91.140
51.1299     62.059   -94.865
51.8736     62.564   -98.619
52.6281     63.053  -102.447
53.3936     63.518  -106.379
54.1702     63.953  -110.367
54.9581     64.360  -114.391
55.7575     64.745  -118.486
56.5685     65.106  -122.666
57.3914     65.447  -126.928
58.2261     65.766  -131.247
59.0730     66.059  -135.521
59.9323     66.340  -139.656
60.8040     66.614  -143.629
61.6884     66.872  -147.390
62.5857     67.118  -150.939
63.4960     67.338  -154.332
64.4196     67.517  -157.584
65.3566     67.660  -160.674
66.3073     67.777  -163.719
67.2717     67.868  -166.790
68.2502     67.945  -169.859
69.2429     68.023  -172.930
70.2501     68.110  -175.995
71.2719     68.214  -179.026
72.3086     68.332   177.939
73.3603     68.447   174.949
74.4274     68.567   172.074
75.5099     68.682   169.236
76.6083     68.775   166.554
77.7226     68.867   164.145
78.8531     68.976   161.829
80.0000     69.089   159.496
81.1636     69.205   157.055
82.3442     69.322   154.473
83.5419     69.451   151.745
84.7570     69.594   148.926
85.9899     69.752   146.120
87.2406     69.916   143.480
88.5096     70.094   141.068
89.7970     70.273   138.676
91.1031     70.424   136.152
92.4282     70.535   133.474
93.7726     70.619   130.712
95.1366     70.697   128.036
96.5204     70.799   125.567
97.9243     70.926   123.260
99.3486     71.060   121.064
100.794     71.192   118.810
102.260     71.306   116.366
103.747     71.411   113.761
105.256     71.524   111.049
106.787     71.645   108.311
108.340     71.760   105.597
109.916     71.827   102.934
111.515     71.860   100.522
113.137     71.897    98.138
114.783     71.943    95.593
116.452     71.996    93.011
118.146     72.060    90.537
119.865     72.126    88.190
121.608     72.170    85.888
123.377     72.185    83.540
125.171     72.189    81.007
126.992     72.196    78.328
128.839     72.215    75.681
130.713     72.226    73.160
132.615     72.206    70.819
134.543     72.164    68.494
136.500     72.135    66.107
138.486     72.116    63.875
140.500     72.075    61.559
142.544     72.005    59.285
144.617     71.921    57.298
146.721     71.840    55.546
148.855     71.815    53.655
151.020     71.799    51.432
153.217     71.733    49.192
155.445     71.671    47.274
157.706     71.596    44.932
160.000     71.350    42.853
162.327     71.190    41.814
164.688     71.160    40.682
167.084     71.161    39.433
169.514     71.166    37.116
171.980     70.932    34.578
174.481     70.699    33.643
177.019     70.600    33.030
179.594     70.548    32.322
182.206     70.524    31.499
184.856     70.547    30.700
187.545     70.557    29.622
190.273     70.569    28.154
193.041     70.565    26.263
195.849     70.518    24.589
198.697     70.486    22.875
201.587     70.412    20.930
204.520     70.183    19.540
207.494     70.022    18.667
210.512     69.898    17.972
213.574     69.937    16.676
216.681     69.816    15.494
219.833     69.691    14.870
223.030     69.607    14.326
226.274     69.595    13.458
229.565     69.603    12.291
232.905     69.471    11.347
236.292     69.426    10.942
239.729     69.434    10.391
243.216     69.497     9.414
246.754     69.485     7.520
250.343     69.329     6.161
253.984     69.251     5.785
257.678     69.243     4.783
261.426     69.237     3.857
265.229     69.190     2.503
269.087     69.012     1.044
273.001     68.871     1.283
276.972     68.935     0.980
281.000     68.915     0.002
285.088     68.932    -0.516
289.234     68.961    -1.446
293.441     69.010    -2.945
297.709     68.875    -4.525
302.040     68.789    -6.101
306.433     68.564    -7.265
310.890     68.501    -6.534
315.412     68.637    -8.068
320.000     68.486    -9.517
324.655     68.234   -10.526
329.377     68.133    -9.716
334.168     68.192   -10.422
339.028     68.141   -10.899
343.959     68.196   -12.532
348.962     68.014   -14.120
354.038     67.764   -14.256
359.188     67.788   -14.905
364.412     67.651   -16.200
369.713     67.555   -16.113
375.090     67.557   -17.149
380.546     67.446   -18.047
386.081     67.448   -19.160
391.697     67.278   -20.692
397.394     67.148   -21.443
403.175     67.014   -21.664
409.039     67.010   -22.238
414.989     67.036   -22.779
421.025     67.061   -23.609
427.149     67.082   -24.467
433.362     67.064   -25.556
439.665     67.143   -26.694
446.060     67.191   -27.854
452.548     67.248   -29.022
459.131     67.262   -29.924
465.809     67.290   -31.543
472.584     67.373   -32.998
479.458     67.397   -34.142
486.432     67.418   -35.653
493.507     67.418   -37.089
500.686     67.410   -38.760
507.968     67.388   -40.319
515.357     67.345   -41.868
522.853     67.281   -43.647
530.458     67.216   -45.313
538.174     67.134   -46.905
546.002     67.044   -48.488
553.943     66.916   -49.988
562.001     66.805   -51.489
570.175     66.655   -52.850
578.469     66.494   -54.255
586.883     66.348   -55.593
595.419     66.213   -56.699
604.080     66.040   -57.800
612.866     65.895   -58.767
621.780     65.738   -59.728
630.824     65.610   -60.621
640.000     65.481   -61.470
649.309     65.366   -62.324
658.753     65.251   -63.064
668.335     65.160   -64.029
678.056     65.075   -64.930
687.919     65.003   -65.917
697.925     64.909   -66.903
708.077     64.835   -68.064
718.376     64.745   -69.239
728.825     64.640   -70.562
739.426     64.556   -71.903
750.181     64.424   -73.291
761.093     64.304   -74.780
772.163     64.156   -76.231
783.394     64.005   -77.647
794.789     63.835   -79.110
806.349     63.659   -80.506
818.078     63.447   -81.867
829.977     63.258   -83.168
842.050     63.032   -84.482
854.298     62.797   -85.483
866.724     62.543   -86.735
879.330     62.292   -87.799
892.120     62.023   -88.675
905.097     61.744   -89.479
918.262     61.489   -90.119
931.618     61.230   -90.393
945.169     61.006   -90.410
958.917     60.805   -90.345
972.864     60.687   -90.025
987.015     60.616   -89.790
1001.37     60.656   -89.885
1015.94     60.745   -90.293
1030.71     60.896   -91.470
1045.71     61.062   -93.416
1060.92     61.205   -96.396
1076.35     61.307  -100.043
1092.00     61.293  -104.682
1107.89     61.167  -110.124
1124.00     60.872  -116.309
1140.35     60.367  -123.064
1156.94     59.609  -130.388
1173.77     58.503  -138.131
1190.84     56.990  -146.148
1208.16     54.772  -153.874
1225.73     51.487  -161.694
1243.56     45.512  -163.816
1261.65     35.722  -100.009
1280.00     44.977   -30.618
1298.62     50.836   -33.814
1317.51     53.958   -41.712
1336.67     55.832   -50.822
1356.11     56.985   -60.690
1375.84     57.591   -70.059
1395.85     57.715   -79.011
1416.15     57.405   -87.171
1436.75     56.713   -93.641
1457.65     55.645   -97.806
1478.85     54.370   -97.698
1500.36     53.226   -92.566
1522.19     52.847   -83.394
1544.33     53.431   -75.395
1566.79     54.524   -71.851
1589.58     55.584   -72.653
1612.70     56.334   -75.931
1636.16     56.723   -80.466
1659.95     56.762   -84.951
1684.10     56.499   -88.437
1708.60     56.066   -89.778
1733.45     55.613   -88.668
1758.66     55.445   -85.038
1784.24     55.759   -80.573
1810.19     56.538   -77.392
1836.52     57.568   -76.853
1863.24     58.603   -79.018
1890.34     59.524   -83.336
1917.83     60.232   -89.157
1945.73     60.697   -95.802
1974.03     60.886  -102.931
2002.74     60.810  -109.984
2031.87     60.525  -116.119
2061.43     60.047  -120.615
2091.41     59.547  -123.527
2121.83     59.189  -125.172
2152.69     59.084  -126.468
2184.01     59.069  -129.033
2215.77     58.972  -133.014
2248.00     58.588  -137.577
2280.70     57.797  -141.030
2313.87     56.763  -141.251
2347.53     55.952  -136.640
2381.68     55.976  -129.653
2416.32     56.743  -125.676
2451.46     57.582  -126.410
2487.12     58.073  -129.805
2523.30     58.161  -133.295
2560.00     58.060  -134.811
2597.24     58.121  -134.399
2635.01     58.514  -134.240
2673.34     59.088  -136.157
2712.23     59.517  -140.273
2751.68     59.610  -145.127
2791.70     59.420  -149.237
2832.31     59.091  -151.168
2873.50     58.897  -151.478
2915.30     58.983  -151.361
2957.70     59.260  -152.240
3000.72     59.515  -154.557
3044.37     59.635  -157.685
3088.65     59.546  -160.622
3133.58     59.360  -162.531
3179.16     59.233  -163.300
3225.40     59.239  -163.898
3272.31     59.293  -165.003
3319.91     59.242  -166.157
3368.20     59.186  -166.173
3417.19     59.351  -165.175
3466.89     59.803  -165.370
3517.32     60.282  -167.613
3568.48     60.504  -170.984
3620.39     60.548  -173.737
3673.05     60.592  -175.545
3726.47     60.747  -177.129
3780.67     60.950  -179.194
3835.67     61.170   178.144
3891.46     61.356   174.701
3948.06     61.425   170.778
4005.49     61.384   167.041
4063.75     61.331   163.521
4122.86     61.251   158.943
4182.82     60.866   153.791
4243.66     60.136   150.670
4305.39     59.591   150.484
4368.01     59.473   149.296
4431.55     59.137   144.817
4496.01     58.051   140.941
4561.40     56.676   143.077
4627.75     56.031   149.386
4695.06     55.918   152.622
4763.35     55.349   154.934
4832.64     54.784   162.734
4902.93     55.405   171.703
4974.24     56.397   173.643
5046.60     56.868   173.471
5120.00     57.287   174.201
5194.47     57.667   173.528
5270.03     57.832   173.212
5346.68     58.153   174.051
5424.45     58.597   173.386
5503.35     58.939   171.552
5583.40     59.121   168.779
5664.61     59.041   166.547
5747.01     59.065   165.092
5830.60     58.921   161.618
5915.41     58.272   160.055
6001.45     57.880   161.398
6088.74     57.490   161.470
6177.30     56.943   164.378
6267.15     56.976   168.675
6358.31     57.206   169.776
6450.80     56.959   169.577
6544.62     56.561   173.755
6639.82     56.702   179.378
6736.40     57.414  -174.224
6834.38     58.854  -173.989
6933.79     59.487  -178.811
7034.64     59.879   178.062
7136.96     60.045   173.278
7240.77     59.803   170.188
7346.09     59.678   169.162
7452.94     59.700   167.190
7561.35     59.454   165.750
7671.33     59.547   164.756
7782.91     59.268   162.025
7896.12     59.101   160.965
8010.97     58.488   158.753
8127.49     57.922   160.297
8245.71     57.581   161.913
8365.65     57.209   164.671
8487.33     57.528   168.007
8610.78     57.456   165.498
8736.03     56.964   167.260
8863.09     56.587   170.236
8992.01     56.720   175.576
9122.80     57.321   176.370
9255.50     57.511   176.730
9390.12     57.826   172.301
9526.70     57.272   171.841
9665.27     56.939   169.376
9805.86     56.328   170.978
9948.49     55.862   171.311
10093.2     55.200   173.725
10240.0     54.692   176.897
10388.9     54.737  -177.238
10540.1     54.898  -175.880
10693.4     55.002  -176.570
10848.9     54.752  -178.128
11006.7     54.296  -176.739
11166.8     54.236  -176.145
11329.2     54.168  -178.615
11494.0     53.674   177.385
11661.2     52.946   174.681
11830.8     51.815   173.578
12002.9     50.609   172.185
12177.5     49.376   172.490
12354.6     47.906   177.261
12534.3     46.884  -179.440
12716.6     45.419   179.990
12901.6     41.763  -168.906
13089.2     40.312  -133.489
13279.6     43.563  -109.919
13472.8     46.286  -107.749
13668.8     47.849  -111.428
13867.6     48.800  -117.923
14069.3     49.125  -126.696
14273.9     48.690  -136.035
14481.5     47.471  -146.373
14692.2     45.449  -149.709
14905.9     44.381  -151.026
15122.7     43.149  -155.059
15342.7     41.944  -162.351
15565.8     39.867  -175.512
15792.2     35.890   173.292
16021.9     30.655    12.165
16255.0     20.653    68.430
16491.4     32.887   -75.484
16731.3     34.996   -89.089
16974.7     37.464   -98.501
17221.6     38.713  -116.113
17472.1     38.567  -131.562
17726.2     37.754  -145.567
17984.0     36.534  -158.677
18245.6     34.831  -171.587
18511.0     31.344  -178.550
18780.2     30.197  -153.463
19053.4     32.783  -148.264
19330.5     34.821  -155.457
19611.7     34.959  -164.878
19897.0     34.661  -163.717
20186.4     34.159  -164.857
20480.0     33.454  -162.039
20777.9     33.721  -160.838
21080.1     33.369  -154.908
21386.7     33.520  -152.754
21697.8     33.175  -151.587
22013.4     32.651  -149.089
22333.6     32.967  -144.972
22658.4     32.409  -149.105
22988.0     31.387  -149.147
23322.4     29.554  -142.834
23661.6     29.158  -129.437
24005.8     29.936    58.181
24355.0     29.220  -125.087
24709.2     29.283  -123.803
25068.6     28.577  -123.828
25433.2     27.335  -124.096
25803.2     25.197  -113.107
26178.5     26.571  -109.711
26559.3     27.224  -108.086
26945.6     27.286  -112.515
27337.5     27.902  -111.480
27735.2     27.442  -119.691
28138.6     24.920  -124.936
28547.9     23.747  -113.152
28963.1     20.479    40.092
29384.4     20.660    49.989
29811.8     19.709   -39.646
30245.4     20.497  -114.230
30685.3     19.420   -99.262
31131.7     20.569   -74.422
31584.5     18.950    23.515
32043.9     17.383     7.715
32510.0     16.983    77.913
32982.8     17.903   -32.388
33462.6     19.122   -68.509
33949.3     18.499   108.390
34443.1     18.344     3.831
34944.1     17.750    87.753
35452.4     19.237   -60.613
35968.0     18.957  -136.104
36491.2     20.030    65.214
37022.0     17.769    -5.925
37560.5     18.785    29.076
38106.8     18.497   127.538
38661.1     17.681   -59.292
39223.4     17.868    66.479
39793.9     17.170   -61.078
