Freq[Hz]     dBSPL  Phase[Deg]
5.00000    -29.959   120.117
5.07273    -26.539   114.869
5.14651    -23.821   109.647
5.22137    -23.065   104.496
5.29732    -22.308    99.344
5.37437    -21.551    94.193
5.45254    -20.794    89.041
5.53185    -20.453    82.875
5.61231    -20.552    75.635
5.69394    -20.651    68.396
5.77676    -20.750    61.156
5.86079    -20.859    53.796
5.94604    -21.557    39.357
6.03252    -22.255    24.919
6.12027    -22.954    10.481
6.20929    -23.652    -3.957
6.29961    -23.164   -23.325
6.39124    -22.412   -43.785
6.48420    -21.660   -64.245
6.57851    -20.908   -84.706
6.67420    -19.969   -97.916
6.77128    -19.000  -109.949
6.86977    -18.031  -121.982
6.96969    -17.176  -133.943
7.07107    -17.185  -145.349
7.17392    -17.194  -156.756
7.27827    -17.203  -168.163
7.38413    -17.577   174.716
7.49154    -18.232   153.179
7.60050    -18.888   131.643
7.71105    -19.091   109.605
7.82321    -17.306    85.361
7.93701    -15.522    61.118
8.05245    -13.737    36.874
8.16958    -12.207    24.712
8.28841    -10.686    13.002
8.40896     -9.166     1.292
8.53128     -8.843    -7.796
8.65537     -8.674   -16.547
8.78126     -8.505   -25.297
8.90899    -11.802   -37.428
9.03857    -15.326   -49.780
9.17004    -17.907   -67.924
9.30342    -12.977  -132.173
9.43874     -8.047   163.578
9.57603     -3.619   121.721
9.71532      0.046   114.074
9.85663      3.710   106.428
10.0000      6.199    99.639
10.1455      8.362    93.089
10.2930     10.339    86.664
10.4427     11.801    80.591
10.5946     13.263    74.518
10.7487     14.367    68.839
10.9051     15.401    63.238
11.0637     16.277    57.925
11.2246     16.988    52.914
11.3879     17.644    48.065
11.5535     18.103    43.803
11.7216     18.559    39.555
11.8921     18.831    36.171
12.0650     19.103    32.787
12.2405     19.265    30.211
12.4186     19.412    27.739
12.5992     19.498    25.939
12.7825     19.569    24.290
12.9684     19.598    23.224
13.1570     19.615    22.294
13.3484     19.599    22.048
13.5426     19.577    21.913
13.7395     19.561    22.770
13.9394     19.560    23.781
14.1421     19.668    25.666
14.3478     19.846    27.587
14.5565     20.178    29.587
14.7683     20.608    30.923
14.9831     21.112    31.746
15.2010     21.600    31.079
15.4221     22.044    29.916
15.6464     22.313    27.686
15.8740     22.391    25.321
16.1049     22.317    22.849
16.3392     21.858    21.732
16.5768     21.277    22.236
16.8179     20.539    25.021
17.0626     20.120    32.727
17.3107     20.175    41.479
17.5625     20.887    50.857
17.8180     22.176    55.397
18.0771     23.425    57.201
18.3401     24.556    56.437
18.6068     25.324    53.677
18.8775     25.789    50.654
19.1521     26.027    47.931
19.4306     26.068    45.943
19.7133     25.996    45.606
20.0000     26.010    46.522
20.2909     26.172    47.933
20.5860     26.498    49.198
20.8855     26.944    49.609
21.1893     27.371    48.683
21.4975     27.669    47.136
21.8102     27.822    45.622
22.1274     27.855    44.741
22.4492     27.841    44.964
22.7758     27.885    46.452
23.1071     28.099    48.893
23.4432     28.531    51.546
23.7841     29.147    53.656
24.1301     29.839    55.042
24.4811     30.548    55.889
24.8372     31.249    56.442
25.1984     31.935    56.890
25.5649     32.603    57.351
25.9368     33.251    57.919
26.3141     33.878    58.708
26.6968     34.488    59.837
27.0851     35.100    61.361
27.4791     35.730    63.235
27.8788     36.382    65.307
28.2843     37.040    67.435
28.6957     37.688    69.567
29.1131     38.317    71.702
29.5365     38.930    73.810
29.9661     39.531    75.786
30.4020     40.117    77.481
30.8442     40.665    78.763
31.2929     41.158    79.757
31.7480     41.603    80.649
32.2098     42.022    81.618
32.6783     42.466    82.714
33.1536     42.968    83.751
33.6359     43.526    84.523
34.1251     44.115    84.925
34.6215     44.709    85.109
35.1250     45.305    85.291
35.6359     45.931    85.570
36.1543     46.595    85.860
36.6802     47.285    86.068
37.2137     47.980    86.215
37.7550     48.671    86.410
38.3041     49.371    86.697
38.8613     50.080    86.984
39.4265     50.791    87.187
40.0000     51.492    87.321
40.5818     52.190    87.392
41.1721     52.890    87.306
41.7710     53.576    87.000
42.3785     54.225    86.539
42.9949     54.843    86.148
43.6203     55.455    85.899
44.2548     56.086    85.679
44.8985     56.723    85.336
45.5515     57.350    84.883
46.2141     57.966    84.363
46.8863     58.575    83.742
47.5683     59.175    82.951
48.2602     59.759    82.011
48.9621     60.334    80.941
49.6743     60.904    79.707
50.3968     61.458    78.326
51.1299     61.992    76.911
51.8736     62.515    75.545
52.6281     63.028    74.203
53.3936     63.515    72.866
54.1702     63.968    71.574
54.9581     64.383    70.327
55.7575     64.765    69.058
56.5685     65.113    67.714
57.3914     65.433    66.267
58.2261     65.730    64.727
59.0730     66.005    63.200
59.9323     66.278    61.810
60.8040     66.556    60.622
61.6884     66.829    59.734
62.5857     67.095    59.172
63.4960     67.331    58.894
64.4196     67.519    58.861
65.3566     67.656    59.048
66.3073     67.755    59.284
67.2717     67.820    59.452
68.2502     67.873    59.566
69.2429     67.939    59.644
70.2501     68.033    59.754
71.2719     68.159    59.997
72.3086     68.308    60.392
73.3603     68.454    61.008
74.4274     68.591    61.880
75.5099     68.707    62.864
76.6083     68.784    64.006
77.7226     68.855    65.375
78.8531     68.948    66.796
80.0000     69.058    68.212
81.1636     69.186    69.614
82.3442     69.321    71.025
83.5419     69.460    72.453
84.7570     69.596    73.890
85.9899     69.729    75.351
87.2406     69.859    76.911
88.5096     70.009    78.621
89.7970     70.180    80.334
91.1031     70.346    82.012
92.4282     70.486    83.731
93.7726     70.593    85.580
95.1366     70.674    87.661
96.5204     70.757    89.968
97.9243     70.856    92.366
99.3486     70.974    94.810
100.794     71.110    97.231
102.260     71.248    99.630
103.747     71.378   102.098
105.256     71.496   104.629
106.787     71.599   107.167
108.340     71.686   109.659
109.916     71.739   112.142
111.515     71.780   114.943
113.137     71.842   117.967
114.783     71.907   121.055
116.452     71.958   124.229
118.146     72.006   127.513
119.865     72.059   130.905
121.608     72.104   134.408
123.377     72.125   138.024
125.171     72.125   141.595
126.992     72.115   145.050
128.839     72.121   148.502
130.713     72.139   152.125
132.615     72.145   156.131
134.543     72.123   160.551
136.500     72.089   165.110
138.486     72.051   169.098
140.500     71.995   173.489
142.544     71.928   178.512
144.617     71.855  -176.696
146.721     71.777  -171.590
148.855     71.741  -166.020
151.020     71.707  -160.875
153.217     71.633  -155.825
155.445     71.577  -150.463
157.706     71.519  -145.465
160.000     71.291  -139.475
162.327     71.134  -132.372
164.688     71.092  -126.040
167.084     71.082  -119.325
169.514     71.094  -113.063
171.980     70.867  -106.873
174.481     70.614   -99.697
177.019     70.487   -92.417
179.594     70.442   -84.769
182.206     70.462   -76.398
184.856     70.505   -67.711
187.545     70.491   -60.013
190.273     70.481   -52.343
193.041     70.488   -45.123
195.849     70.461   -37.485
198.697     70.420   -29.175
201.587     70.314   -21.299
204.520     70.078   -13.090
207.494     69.954    -4.254
210.512     69.861     5.679
213.574     69.888    15.030
216.681     69.747    23.624
219.833     69.636    33.292
223.030     69.586    43.848
226.274     69.592    54.213
229.565     69.607    64.325
232.905     69.444    74.690
236.292     69.345    85.139
239.729     69.398    95.839
243.216     69.531   106.858
246.754     69.479   116.962
250.343     69.313   127.691
253.984     69.264   139.749
257.678     69.230   151.147
261.426     69.223   163.017
265.229     69.178   174.572
269.087     69.012  -174.121
273.001     68.905  -160.859
276.972     68.958  -148.111
281.000     68.938  -135.618
285.088     68.962  -121.976
289.234     68.995  -108.702
293.441     69.026   -96.111
297.709     68.918   -83.745
302.040     68.849   -70.989
306.433     68.612   -57.539
310.890     68.597   -41.431
315.412     68.733   -27.353
320.000     68.574   -13.425
324.655     68.320     1.002
329.377     68.202    17.142
334.168     68.269    32.918
339.028     68.245    49.010
343.959     68.300    64.323
348.962     68.064    79.056
354.038     67.891    95.472
359.188     67.885   112.385
364.412     67.746   128.842
369.713     67.639   146.808
375.090     67.658   163.569
380.546     67.554  -178.705
386.081     67.557  -161.216
391.697     67.368  -143.643
397.394     67.263  -124.640
403.175     67.121  -105.685
409.039     67.141   -86.514
414.989     67.182   -66.577
421.025     67.213   -46.946
427.149     67.253   -27.523
433.362     67.275    -8.116
439.665     67.364    12.555
446.060     67.430    32.802
452.548     67.505    53.399
459.131     67.598    74.335
465.809     67.672    96.072
472.584     67.765   117.346
479.458     67.849   139.050
486.432     67.890   161.040
493.507     67.943  -176.460
500.686     67.977  -153.358
507.968     68.002  -130.495
515.357     68.016  -107.345
522.853     68.008   -83.872
530.458     67.974   -59.713
538.174     67.944   -35.636
546.002     67.894   -11.457
553.943     67.842    13.338
562.001     67.758    38.832
570.175     67.657    64.845
578.469     67.564    91.597
586.883     67.463   118.407
595.419     67.342   145.383
604.080     67.217   173.035
612.866     67.106  -158.841
621.780     66.987  -129.828
630.824     66.886  -100.140
640.000     66.774   -70.441
649.309     66.679   -40.621
658.753     66.589   -10.154
668.335     66.520    21.366
678.056     66.457    53.156
687.919     66.384    85.383
697.925     66.334   118.060
708.077     66.306   150.853
718.376     66.247  -175.843
728.825     66.219  -142.053
739.426     66.176  -107.695
750.181     66.130   -72.775
761.093     66.089   -37.252
772.163     66.023    -1.844
783.394     65.955    34.226
794.789     65.880    71.348
806.349     65.803   108.561
818.078     65.698   146.488
829.977     65.585  -175.132
842.050     65.476  -136.080
854.298     65.349   -96.370
866.724     65.213   -56.554
879.330     65.074   -15.554
892.120     64.924    26.191
905.097     64.752    68.697
918.262     64.604   111.861
931.618     64.433   155.875
945.169     64.292  -159.382
958.917     64.151  -113.752
972.864     64.056   -67.421
987.015     63.998   -20.255
1001.37     64.009    27.995
1015.94     64.074    76.957
1030.71     64.194   125.699
1045.71     64.376   175.182
1060.92     64.596  -134.523
1076.35     64.811   -84.854
1092.00     65.026   -35.116
1107.89     65.201    15.239
1124.00     65.329    65.723
1140.35     65.371   116.430
1156.94     65.326   168.065
1173.77     65.184  -139.813
1190.84     64.930   -87.018
1208.16     64.570   -33.286
1225.73     64.096    22.082
1243.56     63.539    79.386
1261.65     62.939   138.293
1280.00     62.368  -161.007
1298.62     61.896   -98.717
1317.51     61.581   -34.498
1336.67     61.471    30.894
1356.11     61.525    96.282
1375.84     61.657   161.718
1395.85     61.779  -132.606
1416.15     61.828   -67.315
1436.75     61.730    -1.747
1457.65     61.493    64.895
1478.85     61.123   133.331
1500.36     60.656  -156.716
1522.19     60.198   -84.377
1544.33     59.845    -9.804
1566.79     59.695    66.462
1589.58     59.745   143.331
1612.70     59.900  -140.246
1636.16     60.020   -64.212
1659.95     59.999    11.959
1684.10     59.787    88.655
1708.60     59.314   166.920
1733.45     58.579  -113.115
1758.66     57.682   -29.279
1784.24     56.850    58.662
1810.19     56.363   149.814
1836.52     56.438  -117.104
1863.24     56.926   -24.854
1890.34     57.528    65.714
1917.83     57.981   155.080
1945.73     58.174  -115.700
1974.03     58.082   -24.956
2002.74     57.738    67.460
2031.87     57.190   162.348
2061.43     56.661   -99.985
2091.41     56.218     1.189
2121.83     56.022   104.550
2152.69     56.034  -152.554
2184.01     56.090   -49.608
2215.77     55.939    53.384
2248.00     55.422   156.548
2280.70     54.370   -98.507
2313.87     52.739    11.424
2347.53     50.860   130.618
2381.68     50.020  -100.334
2416.32     51.070    28.055
2451.46     52.679   148.586
2487.12     53.687   -95.700
2523.30     53.882    19.808
2560.00     53.359   138.975
2597.24     52.511   -96.207
2635.01     52.065    34.814
2673.34     52.473   166.981
2712.23     53.042   -63.567
2751.68     53.211    64.450
2791.70     52.757  -165.422
2832.31     51.886   -30.348
2873.50     51.159   110.385
2915.30     50.872  -106.903
2957.70     50.667    36.127
3000.72     50.031  -179.128
3044.37     49.173   -27.711
3088.65     49.023   130.173
3133.58     49.916   -73.270
3179.16     50.764    79.267
3225.40     51.002  -128.310
3272.31     50.771    27.980
3319.91     50.481  -170.803
3368.20     50.499    -6.299
3417.19     50.677   159.235
3466.89     50.813   -33.086
3517.32     50.935   136.863
3568.48     50.965   -51.340
3620.39     50.887   123.779
3673.05     51.042   -56.132
3726.47     51.737   125.276
3780.67     52.392   -55.858
3835.67     52.338   123.288
3891.46     51.628   -51.270
3948.06     51.085   142.495
4005.49     51.438   -20.031
4063.75     52.053   176.847
4122.86     52.544    14.514
4182.82     52.962  -145.962
4243.66     53.315    55.414
4305.39     53.299  -101.941
4368.01     52.990   105.276
4431.55     52.652   -42.957
4496.01     52.353   172.090
4561.40     51.975    29.916
4627.75     51.484  -109.122
4695.06     50.831   115.762
4763.35     49.850   -15.858
4832.64     48.536  -142.590
4902.93     46.867    99.832
4974.24     46.021    -5.741
5046.60     46.761  -111.985
5120.00     46.985   139.169
5194.47     47.246    39.594
5270.03     48.760   -60.830
5346.68     49.929  -165.356
5424.45     50.465    94.166
5503.35     51.052    -2.353
5583.40     51.602   -97.681
5664.61     51.879   168.938
5747.01     51.511    79.333
5830.60     51.138    -3.479
5915.41     51.224   -83.550
6001.45     50.606  -164.177
6088.74     49.688   123.519
6177.30     49.342    53.896
6267.15     48.327   -15.130
6358.31     47.536   -76.681
6450.80     47.119  -143.649
6544.62     44.940   148.577
6639.82     41.902    90.910
6736.40     38.752    37.309
6834.38     35.455     1.069
6933.79     34.690   -39.113
7034.64     30.841   -63.260
7136.96     33.221   -60.839
7240.77     35.067   -77.354
7346.09     37.885   -82.680
7452.94     38.535   -91.480
7561.35     40.526   -79.192
7671.33     41.306   -76.554
7782.91     42.180   -48.836
7896.12     43.715   -27.442
8010.97     45.072    10.816
8127.49     47.673    41.672
8245.71     49.405    80.822
8365.65     51.289   119.353
8487.33     52.283   164.097
8610.78     53.204  -148.179
8736.03     53.326   -93.544
8863.09     53.547   -32.328
8992.01     53.017    33.383
9122.80     52.387   107.643
9255.50     51.155  -173.179
9390.12     49.876   -82.435
9526.70     47.504    14.913
9665.27     45.907   131.105
9805.86     44.469  -101.592
9948.49     45.759    33.555
10093.2     46.838   167.994
10240.0     47.753   -57.859
10388.9     48.217    90.285
10540.1     49.157  -118.326
10693.4     49.732    38.724
10848.9     49.880  -156.229
11006.7     50.047    19.654
11166.8     50.649  -160.755
11329.2     50.701    24.719
11494.0     50.077  -142.099
11661.2     49.189    61.357
11830.8     48.227   -79.508
12002.9     48.050   144.822
12177.5     48.061    17.471
12354.6     48.054  -101.263
12534.3     48.105   145.839
12716.6     47.944    42.036
12901.6     47.295   -52.398
13089.2     46.435  -134.749
13279.6     45.422   152.706
13472.8     44.836    94.584
13668.8     45.152    44.070
13867.6     45.613    -7.723
14069.3     44.964   -50.937
14273.9     43.851   -82.303
14481.5     42.885  -101.070
14692.2     43.045  -106.672
14905.9     43.322  -106.251
15122.7     43.021   -95.486
15342.7     42.399   -69.519
15565.8     41.875   -32.051
15792.2     41.116    14.255
16021.9     39.743    70.582
16255.0     37.463   145.125
16491.4     35.911  -132.007
16731.3     33.548   -44.124
16974.7     30.999    47.630
17221.6     27.605   137.018
17472.1     25.114  -154.515
17726.2     23.174   -97.193
17984.0     25.510    18.591
18245.6     27.650   149.147
18511.0     28.297   -55.003
18780.2     25.464   125.208
19053.4     19.752    85.955
19330.5     20.792  -165.268
19611.7     25.674   100.754
19897.0     27.480    -7.313
20186.4     26.341    76.578
20480.0     23.848   124.343
20777.9     21.756   -28.772
21080.1     19.215   145.255
21386.7     18.129  -175.925
21697.8     19.705   167.640
22013.4     23.945  -104.732
22333.6     25.821   101.438
22658.4     25.975  -149.834
22988.0     25.398   134.886
23322.4     24.439  -128.231
23661.6     22.245   102.652
24005.8     22.812    54.299
24355.0     21.877   -14.851
24709.2     21.523  -140.513
25068.6     19.925   -95.945
25433.2     18.935   -49.578
25803.2     19.720    97.167
26178.5     18.633   -59.360
26559.3     17.758  -174.475
26945.6     18.124  -140.707
27337.5     17.593  -132.619
27735.2     17.077   175.373
28138.6     17.803   -31.060
28547.9     17.759   136.865
28963.1     18.307    71.347
29384.4     16.202   110.247
29811.8     16.521  -124.303
30245.4     17.166   114.866
30685.3     18.191   130.480
31131.7     16.990   -47.760
31584.5     17.163   169.658
32043.9     17.651    96.938
32510.0     16.755  -123.603
32982.8     17.597  -156.715
33462.6     18.077   149.312
33949.3     17.083   -97.888
34443.1     19.643   159.778
34944.1     17.801   157.616
35452.4     18.433   -68.275
35968.0     18.848    75.991
36491.2     19.078   156.995
37022.0     19.766   -40.496
37560.5     18.863   -79.242
38106.8     18.376   178.670
38661.1     17.729   -85.395
39223.4     17.714   119.574
39793.9     19.335  -167.240
