Freq[Hz]     dBSPL  Phase[Deg]
5.00000    -14.507    46.869
5.07273    -14.575    47.509
5.14651    -14.807    48.721
5.22137    -15.495    51.534
5.29732    -16.183    54.346
5.37437    -16.871    57.158
5.45254    -17.558    59.970
5.53185    -18.048    67.333
5.61231    -18.327    79.509
5.69394    -18.607    91.684
5.77676    -18.886   103.860
5.86079    -19.141   115.932
5.94604    -17.939   121.901
6.03252    -16.738   127.870
6.12027    -15.536   133.840
6.20929    -14.334   139.809
6.29961    -13.692   140.779
6.39124    -13.175   140.641
6.48420    -12.657   140.503
6.57851    -12.139   140.365
6.67420    -12.496   139.701
6.77128    -12.994   138.952
6.86977    -13.492   138.202
6.96969    -14.217   138.800
7.07107    -16.668   149.649
7.17392    -19.120   160.497
7.27827    -21.571   171.346
7.38413    -21.136  -170.348
7.49154    -18.470  -146.281
7.60050    -15.804  -122.214
7.71105    -13.320  -102.664
7.82321    -11.635  -102.959
7.93701     -9.950  -103.253
8.05245     -8.265  -103.548
8.16958     -7.984  -105.185
8.28841     -7.757  -106.873
8.40896     -7.529  -108.560
8.53128     -9.182  -105.477
8.65537    -11.077  -101.779
8.78126    -12.972   -98.080
8.90899    -11.583   -59.826
9.03857     -9.979   -19.308
9.17004     -8.141    16.994
9.30342     -4.437    19.743
9.43874     -0.733    22.492
9.57603      2.384    23.795
9.71532      4.603    22.888
9.85663      6.822    21.981
10.0000      8.586    20.800
10.1455     10.224    19.543
10.2930     11.785    18.213
10.4427     13.134    16.681
10.5946     14.483    15.150
10.7487     15.701    13.136
10.9051     16.892    11.027
11.0637     18.001     8.564
11.2246     19.025     5.726
11.3879     20.005     2.759
11.5535     20.827    -0.681
11.7216     21.646    -4.125
11.8921     22.234    -7.830
12.0650     22.823   -11.534
12.2405     23.195   -15.026
12.4186     23.539   -18.490
12.5992     23.704   -21.216
12.7825     23.828   -23.778
12.9684     23.850   -25.044
13.1570     23.847   -26.008
13.3484     23.902   -25.416
13.5426     23.967   -24.572
13.7395     24.271   -22.986
13.9394     24.611   -21.478
14.1421     25.141   -20.784
14.3478     25.673   -20.597
14.5565     26.208   -21.498
14.7683     26.642   -22.996
14.9831     26.997   -24.955
15.2010     27.131   -26.905
15.4221     27.185   -28.620
15.6464     27.051   -29.307
15.8740     26.880   -28.673
16.1049     26.681   -26.984
16.3392     26.725   -23.047
16.5768     26.964   -18.916
16.8179     27.474   -14.626
17.0626     28.248   -12.009
17.3107     29.063   -10.465
17.5625     29.888   -10.227
17.8180     30.586   -11.268
18.0771     31.194   -12.670
18.3401     31.709   -14.342
18.6068     32.108   -16.053
18.8775     32.443   -17.661
19.1521     32.731   -19.182
19.4306     32.978   -20.613
19.7133     33.169   -21.928
20.0000     33.309   -23.043
20.2909     33.409   -23.840
20.5860     33.483   -24.185
20.8855     33.557   -23.942
21.1893     33.703   -22.964
21.4975     33.968   -21.649
21.8102     34.360   -20.369
22.1274     34.866   -19.432
22.4492     35.450   -19.041
22.7758     36.075   -19.244
23.1071     36.709   -19.966
23.4432     37.336   -21.093
23.7841     37.949   -22.561
24.1301     38.536   -24.305
24.4811     39.084   -26.247
24.8372     39.573   -28.235
25.1984     39.999   -30.033
25.5649     40.378   -31.367
25.9368     40.754   -32.048
26.3141     41.186   -32.099
26.6968     41.724   -31.826
27.0851     42.373   -31.704
27.4791     43.094   -32.145
27.8788     43.814   -33.257
28.2843     44.480   -34.825
28.6957     45.077   -36.546
29.1131     45.621   -38.172
29.5365     46.143   -39.607
29.9661     46.675   -40.924
30.4020     47.231   -42.299
30.8442     47.802   -43.912
31.2929     48.369   -45.751
31.7480     48.920   -47.713
32.2098     49.463   -49.671
32.6783     50.018   -51.554
33.1536     50.596   -53.409
33.6359     51.198   -55.307
34.1251     51.811   -57.268
34.6215     52.424   -59.227
35.1250     53.040   -61.129
35.6359     53.662   -62.996
36.1543     54.289   -64.925
36.6802     54.902   -66.979
37.2137     55.479   -69.129
37.7550     56.026   -71.300
38.3041     56.549   -73.484
38.8613     57.064   -75.759
39.4265     57.574   -78.257
40.0000     58.076   -81.030
40.5818     58.563   -84.089
41.1721     59.037   -87.375
41.7710     59.504   -90.805
42.3785     59.965   -94.339
42.9949     60.418   -97.880
43.6203     60.864  -101.289
44.2548     61.322  -104.468
44.8985     61.805  -107.596
45.5515     62.276  -110.853
46.2141     62.691  -114.101
46.8863     63.065  -117.093
47.5683     63.451  -120.077
48.2602     63.803  -123.543
48.9621     64.047  -127.207
49.6743     64.237  -130.419
50.3968     64.508  -133.389
51.1299     64.852  -136.934
51.8736     65.156  -140.993
52.6281     65.410  -144.828
53.3936     65.684  -148.286
54.1702     65.973  -151.634
54.9581     66.233  -154.794
55.7575     66.470  -157.697
56.5685     66.675  -160.516
57.3914     66.834  -163.299
58.2261     66.957  -166.080
59.0730     67.056  -168.935
59.9323     67.148  -171.836
60.8040     67.258  -174.779
61.6884     67.394  -177.668
62.5857     67.572   179.588
63.4960     67.775   176.928
64.4196     67.955   174.499
65.3566     68.110   172.478
66.3073     68.244   170.635
67.2717     68.331   168.798
68.2502     68.383   166.911
69.2429     68.418   164.914
70.2501     68.469   162.765
71.2719     68.546   160.470
72.3086     68.649   158.157
73.3603     68.771   155.923
74.4274     68.893   153.871
75.5099     69.000   151.966
76.6083     69.065   150.122
77.7226     69.109   148.406
78.8531     69.177   146.564
80.0000     69.272   144.536
81.1636     69.422   142.420
82.3442     69.603   140.328
83.5419     69.803   138.568
84.7570     69.998   137.096
85.9899     70.150   135.900
87.2406     70.247   134.836
88.5096     70.304   133.749
89.7970     70.345   132.367
91.1031     70.369   130.618
92.4282     70.376   128.666
93.7726     70.373   126.712
95.1366     70.375   124.904
96.5204     70.411   123.223
97.9243     70.500   121.521
99.3486     70.627   119.904
100.794     70.814   118.390
102.260     70.990   116.943
103.747     71.147   115.677
105.256     71.267   114.387
106.787     71.360   112.933
108.340     71.437   111.340
109.916     71.510   109.777
111.515     71.596   108.446
113.137     71.694   107.167
114.783     71.780   105.799
116.452     71.864   104.332
118.146     71.956   102.838
119.865     72.073   101.413
121.608     72.188   100.033
123.377     72.285    98.595
125.171     72.372    97.032
126.992     72.470    95.307
128.839     72.587    93.649
130.713     72.696    92.096
132.615     72.752    90.719
134.543     72.777    89.379
136.500     72.836    87.864
138.486     72.913    86.266
140.500     72.986    84.716
142.544     73.034    83.293
144.617     73.031    81.998
146.721     73.044    80.750
148.855     73.151    79.095
151.020     73.267    77.280
153.217     73.287    75.768
155.445     73.275    74.379
157.706     73.203    72.361
160.000     73.085    71.132
162.327     73.121    70.779
164.688     73.167    70.047
167.084     73.262    68.855
169.514     73.356    66.159
171.980     73.255    64.459
174.481     73.109    64.218
177.019     73.010    63.771
179.594     73.034    62.796
182.206     73.154    61.998
184.856     73.242    61.817
187.545     73.270    61.211
190.273     73.316    59.956
193.041     73.370    58.429
195.849     73.389    56.872
198.697     73.402    54.902
201.587     73.365    53.332
204.520     73.254    52.458
207.494     73.185    51.242
210.512     73.164    50.370
213.574     73.118    48.924
216.681     72.890    48.403
219.833     72.853    47.892
223.030     72.770    47.449
226.274     72.718    47.556
229.565     72.768    47.236
232.905     72.760    46.610
236.292     72.808    45.935
239.729     72.849    44.931
243.216     72.823    44.177
246.754     72.766    43.164
250.343     72.643    42.520
253.984     72.618    42.460
257.678     72.707    41.609
261.426     72.671    40.315
265.229     72.545    39.480
269.087     72.351    38.632
273.001     72.266    39.164
276.972     72.298    39.043
281.000     72.256    38.737
285.088     72.209    38.192
289.234     72.271    38.261
293.441     72.259    36.749
297.709     72.145    36.472
302.040     72.134    35.742
306.433     71.855    34.837
310.890     71.854    35.578
315.412     71.818    34.812
320.000     71.749    34.260
324.655     71.503    34.006
329.377     71.490    34.528
334.168     71.373    34.464
339.028     71.353    34.645
343.959     71.357    34.379
348.962     71.239    33.753
354.038     71.053    33.484
359.188     71.059    33.226
364.412     70.909    32.561
369.713     70.793    31.394
375.090     70.500    31.793
380.546     70.525    31.699
386.081     70.442    31.165
391.697     70.435    30.449
397.394     70.348    29.394
403.175     70.239    28.504
409.039     70.175    28.009
414.989     70.150    27.058
421.025     70.107    26.235
427.149     70.045    25.189
433.362     70.002    24.350
439.665     69.948    23.069
446.060     69.886    22.120
452.548     69.818    21.169
459.131     69.729    20.427
465.809     69.623    19.725
472.584     69.499    19.418
479.458     69.370    19.244
486.432     69.226    19.271
493.507     69.043    19.438
500.686     68.890    19.534
507.968     68.719    20.031
515.357     68.549    20.556
522.853     68.397    21.326
530.458     68.256    22.305
538.174     68.115    23.448
546.002     68.012    24.539
553.943     67.960    25.862
562.001     67.908    27.267
570.175     67.904    28.547
578.469     67.939    29.724
586.883     68.002    30.968
595.419     68.087    31.783
604.080     68.185    32.509
612.866     68.300    33.089
621.780     68.395    33.309
630.824     68.514    33.349
640.000     68.596    33.327
649.309     68.662    33.051
658.753     68.705    32.738
668.335     68.704    32.357
678.056     68.681    31.841
687.919     68.627    31.396
697.925     68.546    31.052
708.077     68.435    30.709
718.376     68.307    30.681
728.825     68.152    30.772
739.426     68.004    31.077
750.181     67.840    31.580
761.093     67.698    32.331
772.163     67.586    33.199
783.394     67.492    34.244
794.789     67.442    35.300
806.349     67.427    36.401
818.078     67.435    37.330
829.977     67.473    38.138
842.050     67.522    38.675
854.298     67.576    39.021
866.724     67.633    39.052
879.330     67.670    38.934
892.120     67.692    38.610
905.097     67.674    38.095
918.262     67.621    37.467
931.618     67.544    36.659
945.169     67.417    35.929
958.917     67.241    35.167
972.864     67.011    34.411
987.015     66.741    33.725
1001.37     66.411    33.246
1015.94     66.023    33.033
1030.71     65.585    33.275
1045.71     65.106    33.908
1060.92     64.610    35.362
1076.35     64.122    37.451
1092.00     63.711    40.384
1107.89     63.388    43.809
1124.00     63.242    47.446
1140.35     63.241    50.821
1156.94     63.353    53.472
1173.77     63.518    55.105
1190.84     63.647    55.760
1208.16     63.685    55.498
1225.73     63.586    54.671
1243.56     63.311    53.675
1261.65     62.825    53.063
1280.00     62.142    53.371
1298.62     61.309    55.367
1317.51     60.478    59.750
1336.67     59.852    66.796
1356.11     59.706    75.239
1375.84     60.063    82.933
1395.85     60.747    87.904
1416.15     61.451    90.118
1436.75     62.005    90.315
1457.65     62.298    89.223
1478.85     62.348    87.618
1500.36     62.143    86.488
1522.19     61.731    86.313
1544.33     61.209    87.587
1566.79     60.691    90.718
1589.58     60.320    95.212
1612.70     60.187   100.397
1636.16     60.257   105.234
1659.95     60.452   109.338
1684.10     60.696   112.650
1708.60     60.940   115.592
1733.45     61.185   118.134
1758.66     61.425   120.465
1784.24     61.677   122.265
1810.19     61.912   123.814
1836.52     62.102   125.195
1863.24     62.251   126.612
1890.34     62.404   128.157
1917.83     62.603   129.834
1945.73     62.879   131.185
1974.03     63.166   131.834
2002.74     63.415   131.654
2031.87     63.525   130.904
2061.43     63.480   130.248
2091.41     63.311   130.404
2121.83     63.121   131.695
2152.69     63.090   133.806
2184.01     63.248   135.859
2215.77     63.540   136.811
2248.00     63.789   136.486
2280.70     63.926   135.339
2313.87     63.913   134.079
2347.53     63.812   133.211
2381.68     63.701   132.773
2416.32     63.616   132.372
2451.46     63.540   131.770
2487.12     63.427   130.904
2523.30     63.278   129.946
2560.00     63.125   128.900
2597.24     62.944   127.553
2635.01     62.675   125.851
2673.34     62.248   124.140
2712.23     61.688   123.455
2751.68     61.170   124.489
2791.70     60.923   126.237
2832.31     60.945   126.705
2873.50     60.929   125.129
2915.30     60.657   122.696
2957.70     60.156   121.388
3000.72     59.743   122.148
3044.37     59.712   123.196
3088.65     59.913   122.222
3133.58     59.998   119.192
3179.16     59.844   115.723
3225.40     59.584   113.105
3272.31     59.447   111.146
3319.91     59.429   108.686
3368.20     59.417   105.472
3417.19     59.355   102.070
3466.89     59.301    98.716
3517.32     59.263    95.256
3568.48     59.194    91.946
3620.39     59.159    89.123
3673.05     59.278    86.495
3726.47     59.516    83.042
3780.67     59.731    78.381
3835.67     59.742    72.944
3891.46     59.547    67.716
3948.06     59.123    63.725
4005.49     58.695    62.432
4063.75     58.623    62.501
4122.86     58.839    60.924
4182.82     58.861    57.446
4243.66     58.593    55.080
4305.39     58.462    54.161
4368.01     58.384    52.400
4431.55     58.035    51.195
4496.01     57.866    53.012
4561.40     58.241    53.720
4627.75     58.474    50.949
4695.06     58.332    48.691
4763.35     58.234    47.995
4832.64     58.207    47.067
4902.93     58.188    46.647
4974.24     58.283    45.191
5046.60     58.060    43.494
5120.00     57.965    45.713
5194.47     58.641    46.257
5270.03     59.041    42.342
5346.68     59.150    40.329
5424.45     59.575    37.473
5503.35     59.707    32.668
5583.40     59.718    29.351
5664.61     59.761    25.449
5747.01     59.675    22.952
5830.60     60.001    19.276
5915.41     59.674    12.577
6001.45     59.144    12.362
6088.74     59.476     9.735
6177.30     58.934     5.012
6267.15     58.738     6.281
6358.31     58.983     2.330
6450.80     58.583    -1.399
6544.62     58.249    -4.668
6639.82     57.549    -7.541
6736.40     56.638    -8.903
6834.38     55.712    -3.588
6933.79     56.280    -0.281
7034.64     56.187    -2.281
7136.96     56.307    -2.850
7240.77     55.976    -7.211
7346.09     55.208    -7.691
7452.94     54.917    -4.977
7561.35     54.996    -7.008
7671.33     54.510    -5.672
7782.91     54.921    -8.514
7896.12     54.129   -10.847
8010.97     53.808   -10.365
8127.49     53.936    -8.466
8245.71     54.012   -11.742
8365.65     54.405   -14.376
8487.33     53.340   -20.525
8610.78     53.347   -19.317
8736.03     52.474   -21.229
8863.09     52.268   -22.554
8992.01     51.648   -21.339
9122.80     50.300   -19.701
9255.50     50.874   -14.693
9390.12     50.148    -9.901
9526.70     50.559   -12.194
9665.27     50.357    -8.364
9805.86     50.312    -7.563
9948.49     49.996   -11.158
10093.2     49.980   -10.850
10240.0     48.951    -9.570
10388.9     48.954    -9.713
10540.1     49.200   -11.146
10693.4     48.799   -16.327
10848.9     47.658   -22.198
11006.7     45.757   -26.465
11166.8     43.634   -19.248
11329.2     42.916    -2.424
11494.0     42.551     6.101
11661.2     43.313    17.936
11830.8     45.059    17.664
12002.9     46.141     8.873
12177.5     45.748     4.088
12354.6     44.502     4.496
12534.3     43.888     8.994
12716.6     44.534    20.955
12901.6     45.900    24.566
13089.2     47.122    22.242
13279.6     47.875    17.132
13472.8     47.628     8.222
13668.8     46.887    -0.926
13867.6     46.137    -8.442
14069.3     44.635   -18.062
14273.9     42.342   -17.691
14481.5     42.261    -5.639
14692.2     42.736    -1.458
14905.9     42.350    -1.417
15122.7     41.631     4.657
15342.7     42.198    14.699
15565.8     43.058    14.426
15792.2     42.941     6.296
16021.9     41.595    -1.236
16255.0     40.386    -9.852
16491.4     37.241   -28.139
16731.3     30.387   -14.108
16974.7     29.999    24.190
17221.6     33.517    32.894
17472.1     35.261    24.237
17726.2     35.023    10.070
17984.0     32.630    12.544
18245.6     32.259    20.233
18511.0     32.289    24.701
18780.2     32.071    26.672
19053.4     31.737    23.304
19330.5     30.211    27.510
19611.7     29.613    27.333
19897.0     27.148    12.437
20186.4     22.111    15.596
20480.0     21.367    38.738
20777.9     23.545    31.884
21080.1     24.836    32.113
21386.7     24.449    37.655
21697.8     25.172    44.997
22013.4     25.474    56.635
22333.6     26.443    52.377
22658.4     24.345    41.312
22988.0     22.476    38.322
23322.4     20.778   119.924
23661.6     15.449    73.452
24005.8     15.114   129.866
24355.0     15.272    34.305
24709.2     14.421  -117.917
25068.6     15.405    95.633
25433.2     16.798    55.805
25803.2     16.574   -77.732
26178.5     17.512   103.186
26559.3     18.057  -167.997
26945.6     17.795   108.538
27337.5     18.095  -164.895
27735.2     19.592   120.062
28138.6     17.601    75.280
28547.9     15.977   -42.703
28963.1     14.885  -135.782
29384.4     14.469    11.753
29811.8     15.804    96.050
30245.4     15.693    24.193
30685.3     15.893   143.087
31131.7     15.258     2.197
31584.5     15.137  -113.768
32043.9     15.304   -17.429
32510.0     15.494    10.904
32982.8     14.919    70.551
33462.6     14.446    11.456
33949.3     14.869   125.942
34443.1     15.545   119.736
34944.1     14.680   -97.446
35452.4     15.958  -171.134
35968.0     15.368    91.699
36491.2     15.594  -146.426
37022.0     15.893   154.557
37560.5     15.767  -168.922
38106.8     16.273  -118.789
38661.1     15.655   146.519
39223.4     16.702    63.213
39793.9     16.336  -160.445
