Freq[Hz]     dBSPL  Phase[Deg]
5.00000    -12.677    46.165
5.07273    -12.744    46.777
5.14651    -12.974    47.961
5.22137    -13.658    50.743
5.29732    -14.343    53.526
5.37437    -15.028    56.308
5.45254    -15.713    59.090
5.53185    -16.199    66.423
5.61231    -16.474    78.570
5.69394    -16.749    90.716
5.77676    -17.024   102.863
5.86079    -17.275   114.906
5.94604    -16.067   120.848
6.03252    -14.860   126.791
6.12027    -13.652   132.734
6.20929    -12.444   138.676
6.29961    -11.795   139.625
6.39124    -11.270   139.466
6.48420    -10.745   139.308
6.57851    -10.220   139.149
6.67420    -10.568   138.472
6.77128    -11.057   137.710
6.86977    -11.547   136.949
6.96969    -12.263   137.536
7.07107    -14.704   148.384
7.17392    -17.146   159.232
7.27827    -19.588   170.079
7.38413    -19.142  -171.608
7.49154    -16.466  -147.528
7.60050    -13.790  -123.448
7.71105    -11.295  -103.883
7.82321     -9.599  -104.150
7.93701     -7.903  -104.416
8.05245     -6.206  -104.682
8.16958     -5.915  -106.276
8.28841     -5.677  -107.919
8.40896     -5.439  -109.561
8.53128     -7.082  -106.419
8.65537     -8.967  -102.659
8.78126    -10.852   -98.899
8.90899     -9.454   -60.568
9.03857     -7.842   -19.972
9.17004     -5.995    16.410
9.30342     -2.284    19.253
9.43874      1.426    22.095
9.57603      4.548    23.496
9.71532      6.772    22.694
9.85663      8.995    21.893
10.0000     10.760    20.825
10.1455     12.398    19.683
10.2930     13.959    18.470
10.4427     15.305    17.058
10.5946     16.651    15.646
10.7487     17.862    13.752
10.9051     19.046    11.762
11.0637     20.146     9.414
11.2246     21.157     6.688
11.3879     22.125     3.829
11.5535     22.931     0.485
11.7216     23.734    -2.863
11.8921     24.303    -6.494
12.0650     24.872   -10.125
12.2405     25.222   -13.571
12.4186     25.543   -16.992
12.5992     25.683   -19.706
12.7825     25.782   -22.264
12.9684     25.778   -23.560
13.1570     25.750   -24.562
13.3484     25.780   -24.050
13.5426     25.820   -23.291
13.7395     26.102   -21.837
13.9394     26.420   -20.469
14.1421     26.933   -19.954
14.3478     27.451   -19.957
14.5565     27.975   -21.075
14.7683     28.404   -22.805
14.9831     28.757   -25.009
15.2010     28.899   -27.216
15.4221     28.964   -29.189
15.6464     28.848   -30.133
15.8740     28.703   -29.746
16.1049     28.535   -28.294
16.3392     28.619   -24.560
16.5768     28.904   -20.609
16.8179     29.464   -16.468
17.0626     30.296   -13.938
17.3107     31.172   -12.443
17.5625     32.061   -12.205
17.8180     32.827   -13.162
18.0771     33.503   -14.426
18.3401     34.086   -15.902
18.6068     34.551   -17.329
18.8775     34.949   -18.582
19.1521     35.296   -19.685
19.4306     35.595   -20.637
19.7133     35.829   -21.395
20.0000     36.002   -21.896
20.2909     36.123   -22.035
20.5860     36.206   -21.683
20.8855     36.275   -20.716
21.1893     36.398   -18.997
21.4975     36.625   -16.944
21.8102     36.963   -14.950
22.1274     37.398   -13.335
22.4492     37.896   -12.322
22.7758     38.419   -11.977
23.1071     38.940   -12.244
23.4432     39.442   -13.025
23.7841     39.923   -14.281
24.1301     40.373   -15.950
24.4811     40.784   -17.957
24.8372     41.139   -20.153
25.1984     41.440   -22.293
25.5649     41.706   -24.096
25.9368     41.985   -25.352
26.3141     42.339   -26.062
26.6968     42.821   -26.503
27.0851     43.437   -27.118
27.4791     44.150   -28.283
27.8788     44.881   -30.067
28.2843     45.580   -32.224
28.6957     46.225   -34.428
29.1131     46.826   -36.409
29.5365     47.412   -38.061
29.9661     48.007   -39.456
30.4020     48.621   -40.775
30.8442     49.238   -42.206
31.2929     49.835   -43.780
31.7480     50.399   -45.423
32.2098     50.937   -47.046
32.6783     51.465   -48.615
33.1536     52.001   -50.214
33.6359     52.547   -51.936
34.1251     53.097   -53.832
34.6215     53.643   -55.844
35.1250     54.195   -57.906
35.6359     54.762   -60.043
36.1543     55.344   -62.319
36.6802     55.929   -64.768
37.2137     56.496   -67.331
37.7550     57.046   -69.893
38.3041     57.590   -72.411
38.8613     58.136   -74.942
39.4265     58.682   -77.587
40.0000     59.220   -80.404
40.5818     59.740   -83.405
41.1721     60.236   -86.547
41.7710     60.712   -89.781
42.3785     61.167   -93.099
42.9949     61.599   -96.443
43.6203     62.012   -99.700
44.2548     62.429  -102.804
44.8985     62.868  -105.942
45.5515     63.295  -109.292
46.2141     63.673  -112.701
46.8863     64.022  -115.897
47.5683     64.391  -119.098
48.2602     64.739  -122.754
48.9621     64.987  -126.553
49.6743     65.184  -129.826
50.3968     65.458  -132.778
51.1299     65.797  -136.243
51.8736     66.084  -140.191
52.6281     66.306  -143.928
53.3936     66.535  -147.346
54.1702     66.772  -150.749
54.9581     66.980  -154.078
55.7575     67.172  -157.257
56.5685     67.349  -160.425
57.3914     67.498  -163.575
58.2261     67.631  -166.679
59.0730     67.755  -169.747
59.9323     67.877  -172.716
60.8040     68.009  -175.577
61.6884     68.150  -178.267
62.5857     68.306   179.224
63.4960     68.463   176.741
64.4196     68.578   174.358
65.3566     68.665   172.203
66.3073     68.739   170.067
67.2717     68.790   167.837
68.2502     68.827   165.549
69.2429     68.870   163.229
70.2501     68.934   160.887
71.2719     69.020   158.525
72.3086     69.119   156.214
73.3603     69.221   153.972
74.4274     69.312   151.837
75.5099     69.390   149.759
76.6083     69.438   147.693
77.7226     69.476   145.785
78.8531     69.544   143.841
80.0000     69.630   141.806
81.1636     69.751   139.708
82.3442     69.883   137.551
83.5419     70.028   135.554
84.7570     70.180   133.665
85.9899     70.319   131.960
87.2406     70.434   130.437
88.5096     70.531   129.062
89.7970     70.612   127.599
91.1031     70.656   125.914
92.4282     70.661   124.044
93.7726     70.641   122.097
95.1366     70.629   120.218
96.5204     70.658   118.468
97.9243     70.744   116.780
99.3486     70.854   115.262
100.794     70.999   113.838
102.260     71.114   112.347
103.747     71.209   110.845
105.256     71.283   109.167
106.787     71.357   107.282
108.340     71.435   105.317
109.916     71.517   103.487
111.515     71.609   101.977
113.137     71.709   100.565
114.783     71.790    99.071
116.452     71.862    97.457
118.146     71.944    95.787
119.865     72.054    94.179
121.608     72.165    92.645
123.377     72.255    91.095
125.171     72.323    89.409
126.992     72.396    87.469
128.839     72.498    85.494
130.713     72.615    83.621
132.615     72.692    82.056
134.543     72.730    80.684
136.500     72.777    79.169
138.486     72.825    77.479
140.500     72.868    75.669
142.544     72.907    73.865
144.617     72.917    72.273
146.721     72.951    70.881
148.855     73.064    69.185
151.020     73.162    67.287
153.217     73.164    65.559
155.445     73.148    63.917
157.706     73.079    61.721
160.000     72.952    60.328
162.327     72.976    59.727
164.688     73.022    58.731
167.084     73.125    57.309
169.514     73.223    54.399
171.980     73.129    52.484
174.481     72.988    52.111
177.019     72.875    51.532
179.594     72.879    50.204
182.206     73.024    48.933
184.856     73.160    48.585
187.545     73.197    48.004
190.273     73.233    46.569
193.041     73.305    44.834
195.849     73.333    43.339
198.697     73.294    41.304
201.587     73.222    39.212
204.520     73.137    37.875
207.494     73.087    36.502
210.512     73.055    35.354
213.574     73.023    33.514
216.681     72.818    32.809
219.833     72.775    32.116
223.030     72.690    31.294
226.274     72.655    31.102
229.565     72.703    30.521
232.905     72.698    29.479
236.292     72.771    28.486
239.729     72.815    27.227
243.216     72.793    26.008
246.754     72.777    24.645
250.343     72.668    23.864
253.984     72.633    23.433
257.678     72.744    22.187
261.426     72.715    20.619
265.229     72.589    19.370
269.087     72.408    18.112
273.001     72.343    18.239
276.972     72.393    17.925
281.000     72.318    17.292
285.088     72.276    16.077
289.234     72.360    15.758
293.441     72.353    13.809
297.709     72.246    13.159
302.040     72.233    11.953
306.433     71.982    10.685
310.890     71.958    11.216
315.412     71.893     9.896
320.000     71.829     8.866
324.655     71.579     8.209
329.377     71.563     8.338
334.168     71.446     7.955
339.028     71.397     7.853
343.959     71.383     7.066
348.962     71.286     6.074
354.038     71.111     5.724
359.188     71.083     5.350
364.412     70.914     4.325
369.713     70.794     2.787
375.090     70.550     2.832
380.546     70.604     2.741
386.081     70.557     2.051
391.697     70.572     1.233
397.394     70.547    -0.014
403.175     70.483    -0.992
409.039     70.474    -1.705
414.989     70.528    -2.922
421.025     70.556    -4.031
427.149     70.614    -5.440
433.362     70.661    -6.499
439.665     70.726    -8.065
446.060     70.759    -9.428
452.548     70.779   -10.821
459.131     70.821   -12.391
465.809     70.840   -13.626
472.584     70.842   -14.775
479.458     70.827   -15.749
486.432     70.809   -16.775
493.507     70.774   -17.672
500.686     70.717   -18.643
507.968     70.658   -19.580
515.357     70.597   -20.410
522.853     70.522   -21.137
530.458     70.445   -21.818
538.174     70.371   -22.340
546.002     70.291   -22.839
553.943     70.240   -23.178
562.001     70.176   -23.395
570.175     70.134   -23.627
578.469     70.114   -23.781
586.883     70.107   -23.921
595.419     70.120   -24.109
604.080     70.164   -24.371
612.866     70.221   -24.657
621.780     70.283   -25.072
630.824     70.360   -25.680
640.000     70.434   -26.398
649.309     70.513   -27.265
658.753     70.574   -28.242
668.335     70.629   -29.414
678.056     70.661   -30.636
687.919     70.674   -31.950
697.925     70.661   -33.286
708.077     70.627   -34.596
718.376     70.562   -35.787
728.825     70.474   -36.948
739.426     70.369   -37.978
750.181     70.260   -38.795
761.093     70.142   -39.360
772.163     70.038   -39.783
783.394     69.955   -39.924
794.789     69.905   -39.926
806.349     69.888   -39.847
818.078     69.928   -39.744
829.977     70.005   -39.720
842.050     70.118   -39.911
854.298     70.264   -40.376
866.724     70.424   -41.107
879.330     70.586   -42.167
892.120     70.734   -43.534
905.097     70.860   -45.181
918.262     70.957   -47.023
931.618     71.018   -49.001
945.169     71.035   -51.016
958.917     71.016   -53.036
972.864     70.961   -54.949
987.015     70.879   -56.720
1001.37     70.774   -58.329
1015.94     70.661   -59.727
1030.71     70.557   -60.904
1045.71     70.459   -61.975
1060.92     70.392   -62.983
1076.35     70.349   -63.918
1092.00     70.319   -64.942
1107.89     70.313   -66.039
1124.00     70.302   -67.226
1140.35     70.290   -68.541
1156.94     70.275   -69.900
1173.77     70.248   -71.275
1190.84     70.227   -72.602
1208.16     70.211   -73.874
1225.73     70.213   -75.142
1243.56     70.241   -76.466
1261.65     70.296   -77.951
1280.00     70.376   -79.677
1298.62     70.454   -81.749
1317.51     70.521   -84.220
1336.67     70.553   -87.084
1356.11     70.523   -90.214
1375.84     70.423   -93.526
1395.85     70.240   -96.836
1416.15     69.968   -99.899
1436.75     69.632  -102.632
1457.65     69.252  -104.771
1478.85     68.858  -106.304
1500.36     68.473  -107.134
1522.19     68.159  -107.509
1544.33     67.910  -107.581
1566.79     67.749  -107.499
1589.58     67.643  -107.468
1612.70     67.589  -107.557
1636.16     67.577  -107.739
1659.95     67.618  -108.057
1684.10     67.707  -108.543
1708.60     67.849  -109.366
1733.45     68.016  -110.705
1758.66     68.174  -112.554
1784.24     68.295  -114.901
1810.19     68.329  -117.355
1836.52     68.293  -119.803
1863.24     68.215  -121.761
1890.34     68.136  -123.134
1917.83     68.139  -124.066
1945.73     68.260  -124.958
1974.03     68.489  -126.362
2002.74     68.757  -128.614
2031.87     68.985  -131.718
2061.43     69.107  -135.240
2091.41     69.112  -138.852
2121.83     69.034  -141.929
2152.69     68.949  -144.271
2184.01     68.944  -146.028
2215.77     69.072  -147.809
2248.00     69.306  -150.232
2280.70     69.548  -153.659
2313.87     69.704  -157.925
2347.53     69.716  -162.554
2381.68     69.580  -166.779
2416.32     69.353  -170.177
2451.46     69.161  -172.530
2487.12     69.100  -174.290
2523.30     69.201  -176.365
2560.00     69.363  -179.403
2597.24     69.457   176.643
2635.01     69.389   172.348
2673.34     69.166   168.609
2712.23     68.895   166.136
2751.68     68.742   164.820
2791.70     68.819   163.614
2832.31     69.036   161.250
2873.50     69.206   157.487
2915.30     69.173   153.160
2957.70     68.943   149.534
3000.72     68.680   147.493
3044.37     68.614   146.505
3088.65     68.777   144.958
3133.58     68.969   141.837
3179.16     68.972   137.797
3225.40     68.754   134.465
3272.31     68.510   132.871
3319.91     68.494   132.312
3368.20     68.712   130.948
3417.19     68.941   128.062
3466.89     69.005   124.482
3517.32     68.926   121.340
3568.48     68.830   118.995
3620.39     68.797   117.129
3673.05     68.848   115.257
3726.47     68.946   112.949
3780.67     69.004   109.941
3835.67     68.916   106.975
3891.46     68.764   105.202
3948.06     68.801   104.289
4005.49     69.035   102.188
4063.75     69.110    98.310
4122.86     68.848    95.079
4182.82     68.572    94.450
4243.66     68.685    94.524
4305.39     68.955    92.479
4368.01     68.957    89.412
4431.55     68.795    87.939
4496.01     68.885    87.833
4561.40     69.241    86.181
4627.75     69.421    82.493
4695.06     69.266    79.572
4763.35     69.208    79.001
4832.64     69.549    77.652
4902.93     69.772    73.439
4974.24     69.546    69.683
5046.60     69.370    68.689
5120.00     69.550    67.059
5194.47     69.568    63.348
5270.03     69.269    60.867
5346.68     69.130    60.404
5424.45     69.255    58.971
5503.35     69.225    56.101
5583.40     68.983    54.381
5664.61     68.928    54.155
5747.01     69.090    52.523
5830.60     68.993    49.632
5915.41     68.740    48.768
6001.45     68.821    48.518
6088.74     68.890    46.027
6177.30     68.654    44.289
6267.15     68.593    43.960
6358.31     68.528    42.172
6450.80     68.154    42.122
6544.62     68.226    45.000
6639.82     68.788    45.256
6736.40     69.202    43.392
6834.38     69.684    40.671
6933.79     69.924    34.977
7034.64     69.629    30.377
7136.96     69.417    27.223
7240.77     68.882    23.274
7346.09     68.184    23.761
7452.94     68.011    24.194
7561.35     67.483    25.402
7671.33     67.741    29.488
7782.91     68.040    28.799
7896.12     68.506    29.893
8010.97     68.991    24.828
8127.49     68.731    22.302
8245.71     68.793    19.705
8365.65     68.504    17.716
8487.33     68.373    15.781
8610.78     67.987    15.235
8736.03     67.804    15.204
8863.09     67.685    17.599
8992.01     68.177    17.907
9122.80     68.514    16.608
9255.50     68.941    12.184
9390.12     68.582     8.508
9526.70     68.683     5.668
9665.27     68.056     2.725
9805.86     68.114     1.733
9948.49     67.554    -0.335
10093.2     67.594    -2.319
10240.0     66.891    -3.215
10388.9     66.726    -4.629
10540.1     66.161    -4.142
10693.4     65.798    -3.194
10848.9     65.665    -0.401
11006.7     66.088     0.023
11166.8     66.023    -2.216
11329.2     66.112    -4.494
11494.0     65.749    -6.593
11661.2     65.165   -10.168
11830.8     64.490    -7.286
12002.9     63.887    -5.576
12177.5     63.982    -1.821
12354.6     64.075     3.248
12534.3     64.749     2.439
12716.6     65.320    -0.249
12901.6     65.048    -3.103
13089.2     64.881    -5.470
13279.6     64.787    -7.678
13472.8     64.175    -7.991
13668.8     63.912    -7.874
13867.6     63.652    -7.133
14069.3     63.408    -3.647
14273.9     63.699     0.001
14481.5     64.710     0.402
14692.2     65.657    -3.873
14905.9     66.058   -12.363
15122.7     65.632   -22.038
15342.7     64.808   -28.186
15565.8     63.883   -31.682
15792.2     62.903   -33.639
16021.9     62.149   -34.572
16255.0     61.681   -35.718
16491.4     61.466   -39.085
16731.3     60.145   -47.211
16974.7     58.010   -47.880
17221.6     56.054   -44.827
17472.1     54.278   -33.860
17726.2     54.303   -20.895
17984.0     54.770   -15.630
18245.6     54.929   -14.254
18511.0     54.586   -13.652
18780.2     53.908   -10.487
19053.4     53.789    -3.527
19330.5     54.159     1.224
19611.7     54.838     4.830
19897.0     55.829     3.520
20186.4     56.426    -2.633
20480.0     56.219   -12.864
20777.9     54.261   -18.408
21080.1     53.225    -9.595
21386.7     53.578    -6.351
21697.8     54.031    -7.438
22013.4     54.233   -11.686
22333.6     54.141   -18.088
22658.4     53.820   -26.200
22988.0     52.927   -37.310
23322.4     50.886   -46.235
23661.6     48.783   -50.062
24005.8     47.015   -54.857
24355.0     44.303   -66.217
24709.2     39.081   -79.957
25068.6     23.770  -158.451
25433.2     30.152    78.581
25803.2     39.380    79.253
26178.5     43.158    61.859
26559.3     44.467    44.381
26945.6     43.506    27.203
27337.5     41.311    25.395
27735.2     40.207    32.476
28138.6     40.132    35.452
28547.9     38.801    33.066
28963.1     37.029    50.740
29384.4     38.865    64.685
29811.8     39.566    65.584
30245.4     40.746    73.372
30685.3     43.170    73.236
31131.7     45.219    59.036
31584.5     45.704    41.973
32043.9     45.309    26.339
32510.0     44.709    11.687
32982.8     44.038    -3.591
33462.6     42.855   -21.752
33949.3     41.037   -41.301
34443.1     38.833   -60.506
34944.1     36.241   -77.619
35452.4     33.171   -98.995
35968.0     30.184  -112.044
36491.2     28.327  -120.890
37022.0     26.980  -129.814
37560.5     27.046  -142.729
38106.8     24.896  -167.682
38661.1     22.685  -165.563
39223.4     22.648   158.672
39793.9     24.034  -177.934
