Freq[Hz]     dBSPL  Phase[Deg]
5.00000    -16.482    46.882
5.07273    -16.553    47.509
5.14651    -16.787    48.707
5.22137    -17.477    51.501
5.29732    -18.166    54.295
5.37437    -18.856    57.089
5.45254    -19.545    59.882
5.53185    -20.037    67.223
5.61231    -20.318    79.374
5.69394    -20.599    91.525
5.77676    -20.880   103.676
5.86079    -21.136   115.723
5.94604    -19.935   121.661
6.03252    -18.734   127.598
6.12027    -17.533   133.536
6.20929    -16.332   139.474
6.29961    -15.690   140.409
6.39124    -15.173   140.234
6.48420    -14.655   140.059
6.57851    -14.137   139.884
6.67420    -14.492   139.180
6.77128    -14.988   138.390
6.86977    -15.484   137.599
6.96969    -16.207   138.156
7.07107    -18.656   148.962
7.17392    -21.104   159.768
7.27827    -23.552   170.573
7.38413    -23.112  -171.163
7.49154    -20.442  -147.138
7.60050    -17.771  -123.112
7.71105    -15.282  -103.604
7.82321    -13.590  -103.937
7.93701    -11.897  -104.269
8.05245    -10.205  -104.602
8.16958     -9.916  -106.270
8.28841     -9.680  -107.988
8.40896     -9.444  -109.707
8.53128    -11.086  -106.645
8.65537    -12.971  -102.967
8.78126    -14.856   -99.289
8.90899    -13.456   -61.042
9.03857    -11.840   -20.531
9.17004     -9.990    15.767
9.30342     -6.273    18.526
9.43874     -2.556    21.284
9.57603      0.573    22.604
9.71532      2.805    21.725
9.85663      5.037    20.845
10.0000      6.813    19.707
10.1455      8.462    18.497
10.2930     10.036    17.219
10.4427     11.396    15.754
10.5946     12.757    14.288
10.7487     13.984    12.357
10.9051     15.184    10.332
11.0637     16.302     7.961
11.2246     17.332     5.224
11.3879     18.318     2.359
11.5535     19.143    -0.968
11.7216     19.964    -4.300
11.8921     20.552    -7.886
12.0650     21.140   -11.471
12.2405     21.508   -14.842
12.4186     21.847   -18.185
12.5992     22.003   -20.796
12.7825     22.118   -23.244
12.9684     22.127   -24.407
13.1570     22.110   -25.270
13.3484     22.148   -24.596
13.5426     22.194   -23.673
13.7395     22.478   -22.036
13.9394     22.796   -20.483
14.1421     23.303   -19.774
14.3478     23.811   -19.585
14.5565     24.321   -20.512
14.7683     24.730   -22.059
14.9831     25.062   -24.086
15.2010     25.173   -26.141
15.4221     25.206   -27.975
15.6464     25.053   -28.814
15.8740     24.867   -28.351
16.1049     24.655   -26.848
16.3392     24.692   -23.125
16.5768     24.927   -19.215
16.8179     25.437   -15.157
17.0626     26.219   -12.775
17.3107     27.047   -11.464
17.5625     27.890   -11.456
17.8180     28.614   -12.706
18.0771     29.251   -14.298
18.3401     29.800   -16.140
18.6068     30.238   -17.979
18.8775     30.617   -19.677
19.1521     30.951   -21.248
19.4306     31.243   -22.687
19.7133     31.483   -23.950
20.0000     31.669   -24.964
20.2909     31.811   -25.613
20.5860     31.925   -25.767
20.8855     32.033   -25.292
21.1893     32.206   -24.041
21.4975     32.491   -22.428
21.8102     32.894   -20.837
22.1274     33.401   -19.586
22.4492     33.978   -18.888
22.7758     34.586   -18.807
23.1071     35.196   -19.278
23.4432     35.791   -20.200
23.7841     36.366   -21.526
24.1301     36.912   -23.196
24.4811     37.418   -25.137
24.8372     37.866   -27.198
25.1984     38.254   -29.142
25.5649     38.603   -30.691
25.9368     38.959   -31.643
26.3141     39.381   -32.010
26.6968     39.923   -32.079
27.0851     40.591   -32.303
27.4791     41.347   -33.070
27.8788     42.115   -34.460
28.2843     42.843   -36.232
28.6957     43.512   -38.064
29.1131     44.134   -39.690
29.5365     44.736   -41.001
29.9661     45.346   -42.067
30.4020     45.972   -43.066
30.8442     46.599   -44.183
31.2929     47.204   -45.443
31.7480     47.772   -46.773
32.2098     48.311   -48.083
32.6783     48.835   -49.346
33.1536     49.361   -50.649
33.6359     49.892   -52.096
34.1251     50.420   -53.749
34.6215     50.941   -55.567
35.1250     51.462   -57.488
35.6359     51.997   -59.559
36.1543     52.551   -61.841
36.6802     53.110   -64.370
37.2137     53.661   -67.080
37.7550     54.206   -69.837
38.3041     54.759   -72.574
38.8613     55.326   -75.321
39.4265     55.910   -78.147
40.0000     56.495   -81.089
40.5818     57.071   -84.136
41.1721     57.626   -87.236
41.7710     58.161   -90.346
42.3785     58.670   -93.458
42.9949     59.149   -96.537
43.6203     59.598   -99.492
44.2548     60.042  -102.277
44.8985     60.498  -105.106
45.5515     60.935  -108.173
46.2141     61.319  -111.338
46.8863     61.669  -114.333
47.5683     62.042  -117.374
48.2602     62.396  -120.898
48.9621     62.654  -124.578
49.6743     62.864  -127.728
50.3968     63.154  -130.545
51.1299     63.508  -133.858
51.8736     63.808  -137.642
52.6281     64.040  -141.213
53.3936     64.277  -144.478
54.1702     64.518  -147.751
54.9581     64.731  -150.983
55.7575     64.929  -154.099
56.5685     65.115  -157.230
57.3914     65.280  -160.362
58.2261     65.433  -163.451
59.0730     65.583  -166.496
59.9323     65.736  -169.429
60.8040     65.903  -172.238
61.6884     66.082  -174.859
62.5857     66.282  -177.275
63.4960     66.485  -179.627
64.4196     66.653   178.175
65.3566     66.790   176.280
66.3073     66.911   174.483
67.2717     66.997   172.660
68.2502     67.055   170.806
69.2429     67.099   168.892
70.2501     67.154   166.867
71.2719     67.226   164.691
72.3086     67.320   162.445
73.3603     67.438   160.205
74.4274     67.568   158.113
75.5099     67.701   156.225
76.6083     67.800   154.553
77.7226     67.866   153.205
78.8531     67.919   151.858
80.0000     67.951   150.269
81.1636     67.995   148.299
82.3442     68.064   145.887
83.5419     68.195   143.353
84.7570     68.405   140.914
85.9899     68.657   138.942
87.2406     68.905   137.608
88.5096     69.104   136.829
89.7970     69.230   136.148
91.1031     69.262   135.148
92.4282     69.224   133.659
93.7726     69.170   131.770
95.1366     69.165   129.794
96.5204     69.239   128.051
97.9243     69.379   126.611
99.3486     69.517   125.516
100.794     69.658   124.488
102.260     69.749   123.185
103.747     69.835   121.641
105.256     69.936   119.850
106.787     70.068   117.984
108.340     70.210   116.268
109.916     70.334   114.839
111.515     70.441   113.712
113.137     70.546   112.559
114.783     70.641   111.234
116.452     70.743   109.820
118.146     70.854   108.454
119.865     70.977   107.194
121.608     71.084   105.921
123.377     71.173   104.472
125.171     71.265   102.811
126.992     71.388   100.995
128.839     71.542    99.347
130.713     71.686    97.932
132.615     71.764    96.768
134.543     71.794    95.624
136.500     71.852    94.237
138.486     71.927    92.693
140.500     72.004    91.157
142.544     72.066    89.732
144.617     72.083    88.466
146.721     72.117    87.318
148.855     72.234    85.804
151.020     72.350    84.045
153.217     72.383    82.489
155.445     72.403    81.116
157.706     72.361    79.277
160.000     72.246    78.253
162.327     72.277    77.919
164.688     72.344    77.142
167.084     72.473    76.074
169.514     72.575    73.603
171.980     72.467    71.931
174.481     72.341    71.640
177.019     72.270    71.316
179.594     72.291    70.510
182.206     72.401    69.587
184.856     72.528    69.185
187.545     72.617    68.622
190.273     72.706    67.580
193.041     72.789    66.268
195.849     72.826    64.954
198.697     72.834    63.136
201.587     72.807    61.525
204.520     72.729    60.684
207.494     72.681    59.596
210.512     72.679    58.740
213.574     72.671    57.333
216.681     72.475    56.970
219.833     72.455    56.624
223.030     72.378    56.266
226.274     72.337    56.275
229.565     72.437    55.816
232.905     72.493    55.324
236.292     72.571    54.907
239.729     72.622    53.993
243.216     72.623    53.171
246.754     72.618    52.167
250.343     72.538    51.713
253.984     72.532    51.713
257.678     72.660    50.837
261.426     72.663    49.613
265.229     72.573    48.750
269.087     72.428    47.940
273.001     72.375    48.466
276.972     72.463    48.277
281.000     72.471    48.104
285.088     72.461    47.482
289.234     72.592    47.670
293.441     72.574    46.278
297.709     72.489    45.581
302.040     72.555    44.734
306.433     72.331    43.763
310.890     72.388    44.490
315.412     72.389    43.640
320.000     72.369    43.004
324.655     72.146    42.633
329.377     72.178    42.839
334.168     72.125    42.699
339.028     72.129    42.785
343.959     72.162    42.267
348.962     72.087    41.409
354.038     71.943    41.068
359.188     71.957    40.707
364.412     71.822    39.746
369.713     71.739    38.339
375.090     71.485    38.562
380.546     71.534    38.416
386.081     71.482    37.711
391.697     71.498    36.983
397.394     71.446    35.813
403.175     71.363    34.939
409.039     71.324    34.382
414.989     71.347    33.340
421.025     71.330    32.577
427.149     71.329    31.347
433.362     71.338    30.540
439.665     71.356    29.297
446.060     71.341    28.286
452.548     71.341    27.333
459.131     71.314    26.326
465.809     71.292    25.552
472.584     71.254    24.927
479.458     71.201    24.552
486.432     71.135    24.210
493.507     71.052    23.857
500.686     70.968    23.546
507.968     70.869    23.337
515.357     70.773    23.183
522.853     70.671    23.181
530.458     70.555    23.327
538.174     70.439    23.477
546.002     70.342    23.806
553.943     70.238    24.261
562.001     70.146    24.809
570.175     70.058    25.430
578.469     70.011    26.097
586.883     69.961    26.817
595.419     69.957    27.561
604.080     69.954    28.289
612.866     69.978    28.979
621.780     70.010    29.601
630.824     70.061    30.108
640.000     70.109    30.544
649.309     70.158    30.820
658.753     70.207    30.971
668.335     70.246    31.110
678.056     70.265    31.064
687.919     70.285    31.028
697.925     70.280    30.985
708.077     70.252    30.991
718.376     70.203    31.000
728.825     70.143    31.106
739.426     70.074    31.344
750.181     69.996    31.773
761.093     69.920    32.355
772.163     69.854    33.160
783.394     69.801    34.042
794.789     69.780    35.149
806.349     69.791    36.273
818.078     69.839    37.443
829.977     69.927    38.531
842.050     70.045    39.498
854.298     70.188    40.246
866.724     70.343    40.745
879.330     70.509    40.988
892.120     70.667    41.015
905.097     70.809    40.745
918.262     70.927    40.294
931.618     71.016    39.731
945.169     71.060    39.104
958.917     71.066    38.383
972.864     71.039    37.751
987.015     70.976    37.208
1001.37     70.877    36.895
1015.94     70.757    36.783
1030.71     70.630    36.947
1045.71     70.509    37.392
1060.92     70.404    38.070
1076.35     70.338    38.975
1092.00     70.310    39.970
1107.89     70.323    40.940
1124.00     70.380    41.768
1140.35     70.470    42.393
1156.94     70.573    42.744
1173.77     70.673    42.804
1190.84     70.750    42.624
1208.16     70.801    42.217
1225.73     70.812    41.704
1243.56     70.782    41.206
1261.65     70.717    40.770
1280.00     70.622    40.516
1298.62     70.520    40.491
1317.51     70.421    40.652
1336.67     70.342    40.992
1356.11     70.294    41.384
1375.84     70.272    41.650
1395.85     70.273    41.699
1416.15     70.271    41.443
1436.75     70.248    40.879
1457.65     70.168    40.092
1478.85     70.028    39.197
1500.36     69.812    38.320
1522.19     69.521    37.700
1544.33     69.175    37.511
1566.79     68.788    37.916
1589.58     68.397    38.918
1612.70     68.043    40.489
1636.16     67.748    42.460
1659.95     67.523    44.599
1684.10     67.363    46.726
1708.60     67.239    48.728
1733.45     67.137    50.504
1758.66     67.031    52.199
1784.24     66.911    53.889
1810.19     66.775    55.707
1836.52     66.632    57.751
1863.24     66.509    60.185
1890.34     66.433    62.916
1917.83     66.449    65.883
1945.73     66.570    68.617
1974.03     66.784    70.935
2002.74     67.037    72.460
2031.87     67.260    73.162
2061.43     67.396    73.255
2091.41     67.421    73.191
2121.83     67.345    73.369
2152.69     67.215    74.095
2184.01     67.095    75.401
2215.77     67.041    76.957
2248.00     67.045    78.460
2280.70     67.073    79.529
2313.87     67.059    80.327
2347.53     66.981    81.063
2381.68     66.853    82.092
2416.32     66.712    83.646
2451.46     66.626    85.584
2487.12     66.628    87.704
2523.30     66.711    89.502
2560.00     66.838    90.653
2597.24     66.936    91.009
2635.01     66.923    90.816
2673.34     66.749    90.653
2712.23     66.443    91.282
2751.68     66.135    93.236
2791.70     66.006    95.983
2832.31     66.074    98.099
2873.50     66.151    98.570
2915.30     65.991    97.993
2957.70     65.509    98.148
3000.72     64.885   100.794
3044.37     64.529   105.841
3088.65     64.605   110.572
3133.58     64.799   112.923
3179.16     64.737   113.827
3225.40     64.367   115.733
3272.31     63.986   120.137
3319.91     63.926   125.920
3368.20     64.166   130.821
3417.19     64.457   134.235
3466.89     64.661   137.134
3517.32     64.821   140.279
3568.48     65.033   143.758
3620.39     65.355   147.197
3673.05     65.770   149.965
3726.47     66.179   151.848
3780.67     66.487   153.358
3835.67     66.728   155.288
3891.46     67.054   157.868
3948.06     67.574   160.174
4005.49     68.225   160.855
4063.75     68.749   159.449
4122.86     68.896   157.382
4182.82     68.763   157.313
4243.66     68.838   159.671
4305.39     69.296   160.851
4368.01     69.601   159.524
4431.55     69.528   159.268
4496.01     69.668   161.668
4561.40     70.272   162.335
4627.75     70.670   159.589
4695.06     70.574   157.402
4763.35     70.504   157.906
4832.64     70.777   157.962
4902.93     70.954   155.683
4974.24     70.736   153.569
5046.60     70.449   154.170
5120.00     70.535   155.394
5194.47     70.675   154.374
5270.03     70.487   153.422
5346.68     70.366   154.503
5424.45     70.478   154.753
5503.35     70.407   154.257
5583.40     70.287   155.396
5664.61     70.455   157.240
5747.01     70.861   157.520
5830.60     71.148   155.734
5915.41     71.222   154.470
6001.45     71.487   153.241
6088.74     71.619   149.679
6177.30     71.368   147.126
6267.15     71.261   145.918
6358.31     71.130   143.394
6450.80     70.726   141.748
6544.62     70.496   141.715
6639.82     70.353   139.653
6736.40     69.676   137.932
6834.38     69.030   139.976
6933.79     68.557   142.866
7034.64     68.363   148.788
7136.96     69.015   153.004
7240.77     69.528   152.015
7346.09     69.642   152.214
7452.94     70.103   151.205
7561.35     69.950   148.641
7671.33     70.032   148.882
7782.91     69.831   145.286
7896.12     69.197   146.356
8010.97     68.852   147.438
8127.49     68.193   151.847
8245.71     68.380   158.727
8365.65     68.802   163.343
8487.33     69.644   166.244
8610.78     70.274   166.194
8736.03     70.799   164.572
8863.09     70.974   163.661
8992.01     71.119   161.691
9122.80     71.015   162.334
9255.50     71.190   162.174
9390.12     71.092   162.506
9526.70     71.314   163.411
9665.27     71.177   163.805
9805.86     71.622   164.864
9948.49     71.495   164.377
10093.2     71.861   164.582
10240.0     71.729   164.246
10388.9     72.035   163.346
10540.1     71.875   162.338
10693.4     71.813   160.871
10848.9     71.480   160.295
11006.7     71.270   161.100
11166.8     70.961   161.647
11329.2     71.032   162.454
11494.0     70.717   162.807
11661.2     70.619   161.656
11830.8     70.308   163.440
12002.9     69.821   162.252
12177.5     69.635   164.381
12354.6     69.109   166.446
12534.3     68.736   165.433
12716.6     68.261   169.217
12901.6     67.619   174.208
13089.2     67.535   177.616
13279.6     67.615  -178.586
13472.8     67.462  -175.294
13668.8     67.336  -173.477
13867.6     67.106  -170.632
14069.3     66.789  -164.741
14273.9     67.017  -159.163
14481.5     67.512  -156.260
14692.2     68.041  -154.014
14905.9     68.351  -155.256
15122.7     68.137  -157.157
15342.7     67.796  -156.312
15565.8     67.532  -154.065
15792.2     67.372  -152.305
16021.9     67.259  -152.002
16255.0     67.034  -152.364
16491.4     66.339  -150.128
16731.3     66.434  -147.046
16974.7     66.046  -149.463
17221.6     65.165  -149.562
17472.1     64.289  -148.182
17726.2     63.156  -144.578
17984.0     62.388  -136.870
18245.6     62.222  -130.070
18511.0     62.322  -125.760
18780.2     62.378  -125.476
19053.4     61.863  -126.836
19330.5     60.922  -127.149
19611.7     59.837  -125.576
19897.0     58.785  -124.650
20186.4     57.165  -125.933
20480.0     53.931  -125.146
20777.9     49.823  -105.142
21080.1     48.373   -71.562
21386.7     48.966   -40.342
21697.8     51.637   -15.475
22013.4     54.783    -6.809
22333.6     56.780    -7.353
22658.4     57.847    -7.514
22988.0     58.631    -9.444
23322.4     58.618   -10.974
23661.6     58.342    -8.463
24005.8     58.502    -4.490
24355.0     58.692    -3.222
24709.2     58.533    -2.593
25068.6     58.043    -0.050
25433.2     57.709     5.719
25803.2     58.052    11.423
26178.5     58.525    12.891
26559.3     58.735    12.455
26945.6     58.669    11.251
27337.5     58.576     9.325
27735.2     58.119     6.593
28138.6     57.462     4.578
28547.9     56.756     1.295
28963.1     55.473    -1.584
29384.4     54.114    -1.777
29811.8     53.043    -1.472
30245.4     51.889    -3.587
30685.3     50.581    -5.857
31131.7     49.201   -12.348
31584.5     46.659   -22.536
32043.9     42.989   -28.364
32510.0     39.043   -28.980
32982.8     35.139   -31.670
33462.6     30.332   -45.729
33949.3     23.354   -78.560
34443.1     21.392   162.910
34944.1     24.170  -163.996
35452.4     27.432  -173.643
35968.0     28.784  -172.023
36491.2     30.017   176.815
37022.0     29.351   162.255
37560.5     27.371   138.629
38106.8     20.890     8.159
38661.1     14.685   -79.428
39223.4     14.799   154.076
39793.9     18.921   163.326
