Freq[Hz]     dBSPL  Phase[Deg]
5.00000    -13.710    47.129
5.07273    -13.777    47.794
5.14651    -14.008    49.032
5.22137    -14.695    51.872
5.29732    -15.381    54.713
5.37437    -16.068    57.553
5.45254    -16.754    60.394
5.53185    -17.243    67.786
5.61231    -17.522    79.993
5.69394    -17.801    92.200
5.77676    -18.080   104.407
5.86079    -18.334   116.510
5.94604    -17.132   122.512
6.03252    -15.931   128.514
6.12027    -14.729   134.516
6.20929    -13.527   140.518
6.29961    -12.886   141.522
6.39124    -12.369   141.417
6.48420    -11.853   141.313
6.57851    -11.336   141.208
6.67420    -11.694   140.577
6.77128    -12.193   139.860
6.86977    -12.693   139.144
6.96969    -13.419   139.775
7.07107    -15.873   150.654
7.17392    -18.326   161.533
7.27827    -20.780   172.412
7.38413    -20.347  -169.252
7.49154    -17.684  -145.157
7.60050    -15.021  -121.061
7.71105    -12.540  -101.484
7.82321    -10.857  -101.754
7.93701     -9.174  -102.024
8.05245     -7.492  -102.294
8.16958     -7.215  -103.911
8.28841     -6.990  -105.578
8.40896     -6.766  -107.244
8.53128     -8.421  -104.144
8.65537    -10.319  -100.429
8.78126    -12.216   -96.713
8.90899    -10.829   -58.445
9.03857     -9.227   -17.913
9.17004     -7.391    18.403
9.30342     -3.688    21.165
9.43874      0.014    23.926
9.57603      3.130    25.240
9.71532      5.349    24.345
9.85663      7.568    23.450
10.0000      9.332    22.282
10.1455     10.969    21.038
10.2930     12.531    19.724
10.4427     13.882    18.210
10.5946     15.233    16.696
10.7487     16.453    14.707
10.9051     17.646    12.623
11.0637     18.759    10.190
11.2246     19.787     7.388
11.3879     20.771     4.459
11.5535     21.597     1.068
11.7216     22.420    -2.328
11.8921     23.013    -5.968
12.0650     23.606    -9.608
12.2405     23.983   -13.018
12.4186     24.332   -16.400
12.5992     24.499   -19.027
12.7825     24.627   -21.487
12.9684     24.651   -22.634
13.1570     24.650   -23.475
13.3484     24.705   -22.744
13.5426     24.769   -21.757
13.7395     25.069   -20.012
13.9394     25.404   -18.343
14.1421     25.927   -17.474
14.3478     26.450   -17.108
14.5565     26.972   -17.823
14.7683     27.389   -19.131
14.9831     27.727   -20.898
15.2010     27.838   -22.656
15.4221     27.867   -24.180
15.6464     27.703   -24.682
15.8740     27.499   -23.872
16.1049     27.263   -22.012
16.3392     27.265   -17.927
16.5768     27.459   -13.662
16.8179     27.919    -9.256
17.0626     28.640    -6.559
17.3107     29.399    -4.960
17.5625     30.165    -4.697
17.8180     30.800    -5.768
18.0771     31.344    -7.238
18.3401     31.793    -9.019
18.6068     32.125   -10.903
18.8775     32.395   -12.744
19.1521     32.621   -14.549
19.4306     32.808   -16.319
19.7133     32.946   -18.044
20.0000     33.040   -19.625
20.2909     33.102   -20.932
20.5860     33.148   -21.827
20.8855     33.205   -22.166
21.1893     33.350   -21.789
21.4975     33.628   -21.071
21.8102     34.047   -20.371
22.1274     34.591   -19.980
22.4492     35.226   -20.084
22.7758     35.912   -20.721
23.1071     36.615   -21.801
23.4432     37.319   -23.201
23.7841     38.012   -24.849
24.1301     38.680   -26.682
24.4811     39.308   -28.628
24.8372     39.873   -30.540
25.1984     40.370   -32.186
25.5649     40.813   -33.304
25.9368     41.245   -33.712
26.3141     41.725   -33.444
26.6968     42.300   -32.817
27.0851     42.978   -32.317
27.4791     43.717   -32.365
27.8788     44.443   -33.082
28.2843     45.107   -34.263
28.6957     45.692   -35.617
29.1131     46.214   -36.904
29.5365     46.708   -38.038
29.9661     47.205   -39.098
30.4020     47.723   -40.267
30.8442     48.251   -41.733
31.2929     48.775   -43.478
31.7480     49.285   -45.393
32.2098     49.788   -47.347
32.6783     50.306   -49.263
33.1536     50.851   -51.176
33.6359     51.423   -53.149
34.1251     52.010   -55.196
34.6215     52.598   -57.248
35.1250     53.192   -59.248
35.6359     53.793   -61.223
36.1543     54.400   -63.270
36.6802     54.996   -65.457
37.2137     55.558   -67.761
37.7550     56.091   -70.103
38.3041     56.607   -72.477
38.8613     57.121   -74.952
39.4265     57.637   -77.648
40.0000     58.150   -80.602
40.5818     58.659   -83.808
41.1721     59.159   -87.185
41.7710     59.654   -90.645
42.3785     60.143   -94.134
42.9949     60.619   -97.565
43.6203     61.080  -100.810
44.2548     61.544  -103.792
44.8985     62.022  -106.715
45.5515     62.475  -109.786
46.2141     62.864  -112.889
46.8863     63.208  -115.794
47.5683     63.559  -118.763
48.2602     63.878  -122.279
48.9621     64.096  -126.045
49.6743     64.268  -129.387
50.3968     64.529  -132.488
51.1299     64.870  -136.138
51.8736     65.174  -140.259
52.6281     65.428  -144.112
53.3936     65.698  -147.556
54.1702     65.975  -150.881
54.9581     66.218  -154.039
55.7575     66.433  -156.984
56.5685     66.618  -159.897
57.3914     66.763  -162.820
58.2261     66.879  -165.765
59.0730     66.983  -168.771
59.9323     67.089  -171.773
60.8040     67.216  -174.740
61.6884     67.366  -177.565
62.5857     67.548   179.818
63.4960     67.742   177.307
64.4196     67.899   175.001
65.3566     68.022   173.035
66.3073     68.121   171.167
67.2717     68.178   169.230
68.2502     68.206   167.196
69.2429     68.227   165.040
70.2501     68.269   162.743
71.2719     68.342   160.323
72.3086     68.444   157.909
73.3603     68.566   155.590
74.4274     68.690   153.475
75.5099     68.801   151.544
76.6083     68.869   149.731
77.7226     68.906   148.108
78.8531     68.951   146.383
80.0000     69.004   144.414
81.1636     69.096   142.203
82.3442     69.224   139.805
83.5419     69.396   137.555
84.7570     69.605   135.546
85.9899     69.810   133.947
87.2406     69.980   132.758
88.5096     70.101   131.853
89.7970     70.170   130.853
91.1031     70.174   129.485
92.4282     70.130   127.711
93.7726     70.074   125.666
95.1366     70.052   123.599
96.5204     70.098   121.704
97.9243     70.212   119.992
99.3486     70.346   118.564
100.794     70.505   117.279
102.260     70.624   115.909
103.747     70.721   114.486
105.256     70.800   112.867
106.787     70.882   111.051
108.340     70.966   109.173
109.916     71.050   107.417
111.515     71.144   105.940
113.137     71.252   104.532
114.783     71.351   103.076
116.452     71.443   101.583
118.146     71.534   100.095
119.865     71.637    98.633
121.608     71.736    97.123
123.377     71.831    95.500
125.171     71.927    93.783
126.992     72.035    91.979
128.839     72.156    90.282
130.713     72.264    88.674
132.615     72.319    87.220
134.543     72.345    85.813
136.500     72.403    84.251
138.486     72.474    82.603
140.500     72.537    80.962
142.544     72.577    79.412
144.617     72.567    77.985
146.721     72.576    76.575
148.855     72.684    74.700
151.020     72.815    72.668
153.217     72.863    71.024
155.445     72.875    69.627
157.706     72.812    67.678
160.000     72.679    66.458
162.327     72.700    65.928
164.688     72.760    64.979
167.084     72.888    63.774
169.514     72.977    61.259
171.980     72.829    59.453
174.481     72.675    58.809
177.019     72.618    58.178
179.594     72.647    57.341
182.206     72.714    56.292
184.856     72.825    55.392
187.545     72.960    54.579
190.273     73.064    53.750
193.041     73.091    52.485
195.849     73.088    50.837
198.697     73.088    48.748
201.587     73.042    46.916
204.520     72.963    45.792
207.494     72.914    44.640
210.512     72.864    43.615
213.574     72.846    41.697
216.681     72.687    41.185
219.833     72.645    40.934
223.030     72.528    40.250
226.274     72.504    40.074
229.565     72.564    39.692
232.905     72.560    38.745
236.292     72.663    37.883
239.729     72.720    36.998
243.216     72.678    36.035
246.754     72.654    34.715
250.343     72.566    34.005
253.984     72.552    33.838
257.678     72.656    32.807
261.426     72.641    31.300
265.229     72.545    30.269
269.087     72.380    29.311
273.001     72.305    29.716
276.972     72.354    29.282
281.000     72.367    28.764
285.088     72.344    28.210
289.234     72.420    28.008
293.441     72.454    26.347
297.709     72.345    25.972
302.040     72.359    24.852
306.433     72.132    23.783
310.890     72.156    24.339
315.412     72.157    23.369
320.000     72.115    22.609
324.655     71.903    22.152
329.377     71.914    22.392
334.168     71.851    22.060
339.028     71.863    22.046
343.959     71.908    21.518
348.962     71.825    20.609
354.038     71.696    20.112
359.188     71.727    19.656
364.412     71.625    18.584
369.713     71.567    17.141
375.090     71.330    17.257
380.546     71.406    16.898
386.081     71.386    16.007
391.697     71.440    15.030
397.394     71.420    13.667
403.175     71.361    12.429
409.039     71.368    11.539
414.989     71.419    10.123
421.025     71.448     8.922
427.149     71.485     7.342
433.362     71.522     6.149
439.665     71.566     4.472
446.060     71.580     2.984
452.548     71.602     1.606
459.131     71.590     0.158
465.809     71.585    -1.036
472.584     71.546    -2.211
479.458     71.496    -2.947
486.432     71.439    -3.889
493.507     71.373    -4.642
500.686     71.286    -5.313
507.968     71.198    -5.854
515.357     71.087    -6.305
522.853     70.982    -6.661
530.458     70.883    -6.848
538.174     70.782    -6.876
546.002     70.697    -6.757
553.943     70.628    -6.527
562.001     70.579    -6.143
570.175     70.557    -5.727
578.469     70.567    -5.189
586.883     70.596    -4.754
595.419     70.671    -4.379
604.080     70.767    -4.082
612.866     70.885    -3.917
621.780     71.020    -3.934
630.824     71.164    -4.141
640.000     71.308    -4.561
649.309     71.444    -5.117
658.753     71.564    -5.834
668.335     71.671    -6.763
678.056     71.755    -7.757
687.919     71.817    -8.762
697.925     71.849    -9.808
708.077     71.854   -10.778
718.376     71.839   -11.659
728.825     71.801   -12.393
739.426     71.763   -12.953
750.181     71.719   -13.253
761.093     71.690   -13.320
772.163     71.683   -13.160
783.394     71.713   -12.896
794.789     71.803   -12.517
806.349     71.942   -12.130
818.078     72.125   -11.931
829.977     72.364   -12.005
842.050     72.632   -12.413
854.298     72.920   -13.196
866.724     73.203   -14.413
879.330     73.478   -16.008
892.120     73.718   -17.979
905.097     73.925   -20.277
918.262     74.083   -22.754
931.618     74.180   -25.384
945.169     74.222   -28.106
958.917     74.207   -30.758
972.864     74.137   -33.300
987.015     74.018   -35.623
1001.37     73.857   -37.679
1015.94     73.675   -39.363
1030.71     73.489   -40.621
1045.71     73.316   -41.566
1060.92     73.186   -42.204
1076.35     73.106   -42.634
1092.00     73.080   -43.073
1107.89     73.109   -43.648
1124.00     73.170   -44.477
1140.35     73.242   -45.671
1156.94     73.310   -47.202
1173.77     73.349   -49.014
1190.84     73.345   -50.966
1208.16     73.284   -52.973
1225.73     73.177   -54.892
1243.56     73.023   -56.549
1261.65     72.846   -57.830
1280.00     72.672   -58.692
1298.62     72.534   -59.091
1317.51     72.460   -59.253
1336.67     72.467   -59.284
1356.11     72.554   -59.534
1375.84     72.715   -60.148
1395.85     72.900   -61.333
1416.15     73.089   -63.084
1436.75     73.240   -65.373
1457.65     73.334   -68.027
1478.85     73.353   -70.904
1500.36     73.289   -73.763
1522.19     73.148   -76.468
1544.33     72.945   -78.777
1566.79     72.707   -80.519
1589.58     72.480   -81.663
1612.70     72.309   -82.241
1636.16     72.229   -82.503
1659.95     72.261   -82.840
1684.10     72.381   -83.594
1708.60     72.545   -85.007
1733.45     72.691   -87.073
1758.66     72.773   -89.673
1784.24     72.761   -92.509
1810.19     72.651   -95.204
1836.52     72.464   -97.370
1863.24     72.259   -98.798
1890.34     72.118   -99.489
1917.83     72.100   -99.789
1945.73     72.224  -100.318
1974.03     72.440  -101.606
2002.74     72.661  -103.832
2031.87     72.805  -106.818
2061.43     72.822  -110.087
2091.41     72.721  -113.117
2121.83     72.547  -115.431
2152.69     72.395  -116.825
2184.01     72.359  -117.660
2215.77     72.473  -118.628
2248.00     72.698  -120.400
2280.70     72.916  -123.197
2313.87     73.037  -126.828
2347.53     73.008  -130.697
2381.68     72.842  -134.123
2416.32     72.610  -136.679
2451.46     72.424  -138.276
2487.12     72.376  -139.485
2523.30     72.465  -141.111
2560.00     72.593  -143.726
2597.24     72.632  -147.222
2635.01     72.508  -150.956
2673.34     72.230  -154.072
2712.23     71.900  -155.948
2751.68     71.676  -156.726
2791.70     71.660  -157.419
2832.31     71.759  -159.133
2873.50     71.795  -162.086
2915.30     71.621  -165.424
2957.70     71.247  -167.858
3000.72     70.848  -168.436
3044.37     70.669  -167.758
3088.65     70.762  -167.614
3133.58     70.901  -169.083
3179.16     70.842  -171.408
3225.40     70.565  -172.783
3272.31     70.319  -172.069
3319.91     70.407  -170.415
3368.20     70.795  -170.127
3417.19     71.167  -171.934
3466.89     71.332  -174.575
3517.32     71.346  -176.710
3568.48     71.374  -178.184
3620.39     71.466  -179.778
3673.05     71.540   178.122
3726.47     71.514   175.872
3780.67     71.398   173.974
3835.67     71.224   172.788
3891.46     71.087   172.617
3948.06     71.122   172.978
4005.49     71.308   172.462
4063.75     71.403   170.784
4122.86     71.290   169.726
4182.82     71.259   170.548
4243.66     71.594   171.271
4305.39     72.027   169.559
4368.01     72.181   166.482
4431.55     72.105   164.412
4496.01     72.101   163.618
4561.40     72.246   162.315
4627.75     72.294   159.915
4695.06     72.109   157.963
4763.35     71.927   157.806
4832.64     72.007   157.850
4902.93     72.099   156.272
4974.24     71.922   154.762
5046.60     71.751   155.135
5120.00     71.842   155.486
5194.47     71.900   154.428
5270.03     71.759   153.682
5346.68     71.638   154.113
5424.45     71.633   154.670
5503.35     71.597   154.975
5583.40     71.517   156.317
5664.61     71.702   158.816
5747.01     72.213   159.586
5830.60     72.559   157.844
5915.41     72.608   156.678
6001.45     72.774   156.362
6088.74     72.879   154.415
6177.30     72.607   153.977
6267.15     72.699   156.135
6358.31     73.042   155.637
6450.80     73.068   155.007
6544.62     73.300   155.321
6639.82     73.527   153.350
6736.40     73.384   151.877
6834.38     73.406   152.085
6933.79     73.447   150.130
7034.64     73.046   149.747
7136.96     73.053   151.278
7240.77     72.924   150.331
7346.09     72.667   152.485
7452.94     72.815   153.092
7561.35     72.482   153.844
7671.33     72.595   156.965
7782.91     72.541   156.808
7896.12     72.420   160.770
8010.97     72.658   161.803
8127.49     72.525   165.635
8245.71     72.994   168.600
8365.65     73.328   171.758
8487.33     74.047   172.876
8610.78     74.557   173.292
8736.03     75.087   171.385
8863.09     75.227   170.753
8992.01     75.498   168.933
9122.80     75.384   169.171
9255.50     75.696   168.467
9390.12     75.448   168.772
9526.70     75.819   169.356
9665.27     75.574   170.185
9805.86     76.114   171.037
9948.49     75.970   171.904
10093.2     76.583   171.572
10240.0     76.538   171.750
10388.9     76.953   169.920
10540.1     76.845   168.953
10693.4     76.759   167.683
10848.9     76.475   168.354
11006.7     76.538   169.982
11166.8     76.463   171.086
11329.2     76.717   171.091
11494.0     76.584   172.703
11661.2     76.654   172.096
11830.8     76.802   174.664
12002.9     76.720   174.557
12177.5     77.120   175.179
12354.6     77.164   176.223
12534.3     77.175   173.900
12716.6     77.292   174.295
12901.6     77.169   174.783
13089.2     77.071   173.098
13279.6     76.939   173.244
13472.8     76.639   174.339
13668.8     76.454   174.898
13867.6     76.377   175.884
14069.3     76.193   177.588
14273.9     76.002   178.660
14481.5     75.965   179.595
14692.2     75.948  -179.146
14905.9     75.766  -178.550
15122.7     75.427  -178.404
15342.7     75.134  -176.551
15565.8     74.900  -174.033
15792.2     74.541  -170.983
16021.9     74.480  -166.945
16255.0     74.813  -164.507
16491.4     75.053  -163.131
16731.3     75.290  -163.143
16974.7     75.145  -164.464
17221.6     74.893  -164.801
17472.1     74.611  -165.716
17726.2     74.086  -165.395
17984.0     73.698  -163.483
18245.6     73.373  -161.975
18511.0     73.064  -160.545
18780.2     72.691  -159.749
19053.4     72.211  -158.298
19330.5     71.772  -156.472
19611.7     71.377  -154.160
19897.0     71.078  -152.285
20186.4     70.761  -151.375
20480.0     70.166  -152.297
20777.9     68.872  -149.332
21080.1     68.500  -141.500
21386.7     68.347  -138.642
21697.8     68.114  -135.723
22013.4     67.941  -133.367
22333.6     67.672  -132.756
22658.4     67.237  -131.865
22988.0     66.718  -131.668
23322.4     66.072  -130.939
23661.6     65.413  -130.949
24005.8     64.524  -131.544
24355.0     63.386  -131.385
24709.2     62.194  -131.661
25068.6     60.410  -131.358
25433.2     58.323  -127.630
25803.2     56.222  -119.292
26178.5     54.497  -107.391
26559.3     53.472   -94.376
26945.6     52.961   -81.279
27337.5     52.968   -73.019
27735.2     52.856   -68.021
28138.6     52.440   -67.148
28547.9     51.020   -67.892
28963.1     49.312   -64.639
29384.4     47.097   -66.149
29811.8     42.320   -63.288
30245.4     35.719   -34.426
30685.3     34.102    30.992
31131.7     38.650    77.385
31584.5     43.777    91.318
32043.9     46.982    89.823
32510.0     48.523    86.486
32982.8     49.407    83.460
33462.6     49.683    79.239
33949.3     49.362    76.565
34443.1     48.719    74.591
34944.1     47.783    73.502
35452.4     46.423    73.664
35968.0     44.798    75.824
36491.2     43.319    78.747
37022.0     41.113    82.671
37560.5     39.149    93.633
38106.8     37.383   100.656
38661.1     35.041   110.164
39223.4     32.581   125.146
39793.9     31.160   148.575
