Freq[Hz]     dBSPL  Phase[Deg]
5.00000    -12.710    63.807
5.07273    -12.780    64.653
5.14651    -13.013    66.076
5.22137    -13.702    69.108
5.29732    -14.390    72.141
5.37437    -15.078    75.173
5.45254    -15.766    78.205
5.53185    -16.255    85.796
5.61231    -16.534    98.208
5.69394    -16.813   110.619
5.77676    -17.091   123.031
5.86079    -17.345   135.340
5.94604    -16.141   141.563
6.03252    -14.936   147.786
6.12027    -13.732   154.009
6.20929    -12.528   160.232
6.29961    -11.882   161.474
6.39124    -11.361   161.610
6.48420    -10.839   161.747
6.57851    -10.318   161.884
6.67420    -10.669   161.514
6.77128    -11.162   161.063
6.86977    -11.655   160.611
6.96969    -12.375   161.510
7.07107    -14.820   172.681
7.17392    -17.265  -176.148
7.27827    -19.710  -164.976
7.38413    -19.268  -146.333
7.49154    -16.596  -121.916
7.60050    -13.923   -97.499
7.71105    -11.432   -77.595
7.82321     -9.739   -77.512
7.93701     -8.046   -77.430
8.05245     -6.353   -77.347
8.16958     -6.065   -78.580
8.28841     -5.830   -79.862
8.40896     -5.595   -81.144
8.53128     -7.240   -77.631
8.65537     -9.128   -73.499
8.78126    -11.016   -69.367
8.90899     -9.620   -30.653
9.03857     -8.008    10.327
9.17004     -6.163    47.094
9.30342     -2.453    50.331
9.43874      1.258    53.569
9.57603      4.380    55.370
9.71532      6.604    54.976
9.85663      8.828    54.583
10.0000     10.597    53.935
10.1455     12.238    53.216
10.2930     13.802    52.430
10.4427     15.154    51.458
10.5946     16.506    50.486
10.7487     17.725    49.049
10.9051     18.916    47.520
11.0637     20.026    45.645
11.2246     21.049    43.406
11.3879     22.028    41.040
11.5535     22.848    38.214
11.7216     23.664    35.383
11.8921     24.248    32.306
12.0650     24.833    29.229
12.2405     25.201    26.377
12.4186     25.540    23.553
12.5992     25.699    21.475
12.7825     25.818    19.563
12.9684     25.833    18.956
13.1570     25.824    18.653
13.3484     25.872    19.913
13.5426     25.930    21.427
13.7395     26.228    23.692
13.9394     26.561    25.880
14.1421     27.085    27.263
14.3478     27.611    28.143
14.5565     28.140    27.942
14.7683     28.568    27.152
14.9831     28.918    25.906
15.2010     29.048    24.681
15.4221     29.098    23.697
15.6464     28.960    23.753
15.8740     28.787    25.141
16.1049     28.585    27.592
16.3392     28.628    32.310
16.5768     28.866    37.231
16.8179     29.375    42.324
17.0626     30.149    45.765
17.3107     30.964    48.144
17.5625     31.790    49.230
17.8180     32.489    49.062
18.0771     33.097    48.546
18.3401     33.613    47.774
18.6068     34.011    46.986
18.8775     34.347    46.317
19.1521     34.635    45.752
19.4306     34.880    45.292
19.7133     35.070    44.969
20.0000     35.208    44.861
20.2909     35.304    45.087
20.5860     35.372    45.778
20.8855     35.441    47.071
21.1893     35.582    49.115
21.4975     35.840    51.510
21.8102     36.226    53.881
22.1274     36.723    55.921
22.4492     37.299    57.427
22.7758     37.915    58.350
23.1071     38.540    58.766
23.4432     39.158    58.791
23.7841     39.763    58.488
24.1301     40.341    57.924
24.4811     40.880    57.177
24.8372     41.361    56.399
25.1984     41.778    55.829
25.5649     42.149    55.741
25.9368     42.516    56.326
26.3141     42.940    57.561
26.6968     43.470    59.140
27.0851     44.111    60.590
27.4791     44.824    61.499
27.8788     45.535    61.761
28.2843     46.192    61.590
28.6957     46.778    61.286
29.1131     47.310    61.100
29.5365     47.820    61.126
29.9661     48.339    61.289
30.4020     48.880    61.415
30.8442     49.436    61.322
31.2929     49.986    61.020
31.7480     50.519    60.612
32.2098     51.043    60.221
32.6783     51.577    59.922
33.1536     52.134    59.663
33.6359     52.715    59.373
34.1251     53.306    59.033
34.6215     53.897    58.707
35.1250     54.492    58.450
35.6359     55.093    58.241
36.1543     55.701    57.983
36.6802     56.297    57.615
37.2137     56.859    57.169
37.7550     57.392    56.724
38.3041     57.905    56.292
38.8613     58.413    55.799
39.4265     58.917    55.124
40.0000     59.415    54.216
40.5818     59.900    53.069
41.1721     60.371    51.748
41.7710     60.833    50.330
42.3785     61.289    48.853
42.9949     61.731    47.404
43.6203     62.163    46.112
44.2548     62.605    45.065
44.8985     63.071    44.076
45.5515     63.525    42.959
46.2141     63.927    41.858
46.8863     64.293    41.030
47.5683     64.678    40.245
48.2602     65.037    39.039
48.9621     65.294    37.724
49.6743     65.500    36.971
50.3968     65.784    36.585
51.1299     66.132    35.743
51.8736     66.425    34.481
52.6281     66.648    33.495
53.3936     66.873    32.881
54.1702     67.095    32.317
54.9581     67.279    31.832
55.7575     67.439    31.471
56.5685     67.581    31.073
57.3914     67.699    30.635
58.2261     67.811    30.199
59.0730     67.931    29.793
59.9323     68.068    29.535
60.8040     68.233    29.492
61.6884     68.417    29.782
62.5857     68.619    30.425
63.4960     68.812    31.266
64.4196     68.951    32.330
65.3566     69.043    33.691
66.3073     69.107    35.081
67.2717     69.138    36.343
68.2502     69.157    37.509
69.2429     69.189    38.634
70.2501     69.255    39.786
71.2719     69.350    41.023
72.3086     69.459    42.447
73.3603     69.562    44.067
74.4274     69.641    45.874
75.5099     69.691    47.753
76.6083     69.703    49.608
77.7226     69.707    51.573
78.8531     69.752    53.495
80.0000     69.828    55.384
81.1636     69.947    57.328
82.3442     70.076    59.348
83.5419     70.207    61.624
84.7570     70.335    64.036
85.9899     70.443    66.607
87.2406     70.536    69.326
88.5096     70.626    72.214
89.7970     70.717    75.115
91.1031     70.780    77.951
92.4282     70.803    80.768
93.7726     70.794    83.639
95.1366     70.784    86.665
96.5204     70.811    89.893
97.9243     70.893    93.262
99.3486     70.990    96.886
100.794     71.115   100.660
102.260     71.201   104.375
103.747     71.271   108.056
105.256     71.337   111.582
106.787     71.419   115.019
108.340     71.513   118.577
109.916     71.603   122.467
111.515     71.684   126.789
113.137     71.761   131.228
114.783     71.819   135.593
116.452     71.875   139.905
118.146     71.943   144.268
119.865     72.034   148.770
121.608     72.126   153.370
123.377     72.209   158.002
125.171     72.289   162.657
126.992     72.375   167.309
128.839     72.470   172.128
130.713     72.552   177.093
132.615     72.587  -177.705
134.543     72.598  -172.202
136.500     72.638  -166.673
138.486     72.691  -161.878
140.500     72.735  -156.464
142.544     72.765  -150.338
144.617     72.756  -144.680
146.721     72.765  -138.894
148.855     72.859  -132.834
151.020     72.954  -126.975
153.217     72.957  -120.875
155.445     72.939  -114.633
157.706     72.861  -108.946
160.000     72.723  -101.842
162.327     72.742   -93.981
164.688     72.795   -87.132
167.084     72.905   -79.905
169.514     72.979   -73.434
171.980     72.836   -66.232
174.481     72.687   -58.365
177.019     72.613   -50.463
179.594     72.622   -42.239
182.206     72.685   -33.514
184.856     72.764   -24.503
187.545     72.836   -16.322
190.273     72.915    -7.866
193.041     72.977     0.323
195.849     73.000     8.482
198.697     72.991    16.850
201.587     72.931    25.343
204.520     72.843    34.469
207.494     72.809    43.527
210.512     72.789    53.595
213.574     72.752    62.908
216.681     72.551    72.612
219.833     72.519    83.046
223.030     72.434    93.971
226.274     72.410   105.438
229.565     72.480   116.588
232.905     72.489   127.276
236.292     72.586   137.980
239.729     72.658   149.171
243.216     72.648   160.415
246.754     72.638   171.396
250.343     72.553  -176.439
253.984     72.543  -163.808
257.678     72.658  -152.055
261.426     72.647  -140.128
265.229     72.552  -127.849
269.087     72.410  -115.540
273.001     72.358  -101.745
276.972     72.416   -88.851
281.000     72.445   -75.428
285.088     72.431   -61.472
289.234     72.542   -47.124
293.441     72.552   -34.061
297.709     72.427   -20.390
302.040     72.511    -7.056
306.433     72.273     7.131
310.890     72.294    23.321
315.412     72.274    37.889
320.000     72.258    52.656
324.655     72.029    67.930
329.377     72.030    83.689
334.168     71.949   100.349
339.028     71.899   117.213
343.959     71.905   133.360
348.962     71.782   149.362
354.038     71.597   165.758
359.188     71.554  -177.080
364.412     71.358  -159.958
369.713     71.198  -143.347
375.090     70.912  -124.969
380.546     70.872  -106.283
386.081     70.775   -88.102
391.697     70.694   -69.382
397.394     70.593   -50.339
403.175     70.426   -31.740
409.039     70.338   -12.096
414.989     70.307     7.622
421.025     70.265    27.744
427.149     70.235    47.520
433.362     70.209    67.683
439.665     70.206    88.712
446.060     70.164   110.019
452.548     70.122   131.209
459.131     70.096   152.901
465.809     70.083   175.577
472.584     70.037  -161.601
479.458     69.970  -138.662
486.432     69.928  -115.204
493.507     69.857   -90.972
500.686     69.775   -66.195
507.968     69.689   -41.420
515.357     69.594   -16.577
522.853     69.492     8.937
530.458     69.372    35.162
538.174     69.253    61.337
546.002     69.131    87.743
553.943     69.003   114.846
562.001     68.868   142.593
570.175     68.748   171.074
578.469     68.625  -159.664
586.883     68.532  -130.268
595.419     68.431  -100.947
604.080     68.366   -70.860
612.866     68.315   -40.127
621.780     68.280    -8.829
630.824     68.278    23.057
640.000     68.299    54.931
649.309     68.292    86.643
658.753     68.330   118.805
668.335     68.358   152.112
678.056     68.388  -174.791
687.919     68.415  -141.240
697.925     68.420  -107.186
708.077     68.417   -73.179
718.376     68.380   -38.754
728.825     68.330    -3.642
739.426     68.236    31.981
750.181     68.120    68.301
761.093     67.976   105.283
772.163     67.820   142.338
783.394     67.640  -179.693
794.789     67.438  -140.295
806.349     67.222  -100.896
818.078     67.046   -60.428
829.977     66.862   -19.248
842.050     66.719    22.690
854.298     66.609    65.304
866.724     66.534   107.899
879.330     66.491   151.565
892.120     66.476  -164.437
905.097     66.483  -119.963
918.262     66.467   -75.271
931.618     66.433   -30.289
945.169     66.366    15.031
958.917     66.251    60.802
972.864     66.067   107.042
987.015     65.823   153.937
1001.37     65.482  -157.735
1015.94     65.066  -108.558
1030.71     64.617   -58.869
1045.71     64.099    -7.250
1060.92     63.582    46.321
1076.35     63.119   100.616
1092.00     62.769   156.299
1107.89     62.561  -146.504
1124.00     62.486   -88.703
1140.35     62.531   -31.095
1156.94     62.642    26.875
1173.77     62.780    84.505
1190.84     62.829   141.906
1208.16     62.815  -160.908
1225.73     62.638  -102.664
1243.56     62.307   -43.503
1261.65     61.841    16.622
1280.00     61.189    78.002
1298.62     60.430   141.056
1317.51     59.606  -153.154
1336.67     58.828   -84.288
1356.11     58.249   -13.580
1375.84     57.976    58.908
1395.85     57.990   132.110
1416.15     58.171  -155.892
1436.75     58.376   -84.716
1457.65     58.436   -14.089
1478.85     58.365    57.332
1500.36     58.050   128.819
1522.19     57.512  -158.185
1544.33     56.776   -83.311
1566.79     55.915    -5.831
1589.58     54.976    74.202
1612.70     54.138   156.636
1636.16     53.390  -118.852
1659.95     52.832   -32.269
1684.10     52.361    55.601
1708.60     51.926   144.469
1733.45     51.674  -125.730
1758.66     51.448   -33.937
1784.24     51.392    58.575
1810.19     51.420   150.602
1836.52     51.403  -117.223
1863.24     51.256   -24.749
1890.34     50.684    68.950
1917.83     49.809   164.369
1945.73     48.637   -95.124
1974.03     47.532    10.709
2002.74     47.056   121.336
2031.87     47.257  -128.331
2061.43     47.645   -20.566
2091.41     47.753    87.047
2121.83     47.414  -162.509
2152.69     47.014   -47.549
2184.01     47.106    73.099
2215.77     48.072  -166.250
2248.00     49.405   -49.087
2280.70     50.454    66.152
2313.87     51.094  -177.944
2347.53     51.471   -58.803
2381.68     51.957    63.099
2416.32     52.711  -173.030
2451.46     53.671   -49.303
2487.12     54.520    74.243
2523.30     55.101  -161.712
2560.00     55.383   -35.229
2597.24     55.515    93.738
2635.01     55.723  -134.130
2673.34     56.070     0.156
2712.23     56.509   135.448
2751.68     56.877   -87.285
2791.70     57.147    51.478
2832.31     57.327  -167.673
2873.50     57.450   -24.966
2915.30     57.480   119.774
2957.70     57.363   -92.437
3000.72     57.226    58.496
3044.37     57.211  -147.407
3088.65     57.379     8.767
3133.58     57.599   165.659
3179.16     57.586   -35.456
3225.40     57.402   126.810
3272.31     57.236   -67.169
3319.91     57.272   101.866
3368.20     57.434   -87.479
3417.19     57.480    84.480
3466.89     57.460  -100.701
3517.32     57.441    77.985
3568.48     57.422  -101.457
3620.39     57.355    81.618
3673.05     57.276   -91.404
3726.47     57.224    98.334
3780.67     57.135   -68.953
3835.67     57.085   127.532
3891.46     57.392   -32.100
3948.06     57.956   168.676
4005.49     58.255     9.116
4063.75     58.129  -145.861
4122.86     57.954    64.321
4182.82     58.054   -82.170
4243.66     58.255   134.325
4305.39     58.463    -6.996
4368.01     58.689  -145.811
4431.55     58.700    78.187
4496.01     58.645   -52.742
4561.40     58.995   179.948
4627.75     59.317    52.317
4695.06     59.056   -71.185
4763.35     58.846   172.594
4832.64     59.181    58.645
4902.93     59.280   -54.163
4974.24     59.115  -161.273
5046.60     59.206    95.464
5120.00     59.233    -5.145
5194.47     59.195  -100.994
5270.03     59.229   165.578
5346.68     58.984    76.435
5424.45     58.987    -6.008
5503.35     59.189   -87.567
5583.40     58.872  -165.199
5664.61     58.742   124.244
5747.01     58.735    55.698
5830.60     58.488    -8.744
5915.41     58.247   -67.655
6001.45     57.898  -121.373
6088.74     57.896  -171.437
6177.30     57.392   141.742
6267.15     57.044   104.817
6358.31     57.233    68.074
6450.80     56.580    37.264
6544.62     56.697    13.907
6639.82     56.734    -8.607
6736.40     56.641   -24.587
6834.38     56.548   -37.430
6933.79     56.425   -45.166
7034.64     55.792   -48.580
7136.96     55.450   -43.062
7240.77     54.894   -37.082
7346.09     54.075   -17.584
7452.94     53.911     1.374
7561.35     52.869    30.126
7671.33     52.529    64.944
7782.91     52.149   105.612
7896.12     51.752   152.050
8010.97     52.021  -155.562
8127.49     51.399  -101.008
8245.71     51.339   -37.058
8365.65     50.479    32.276
8487.33     49.970   109.978
8610.78     49.892  -160.987
8736.03     49.858   -73.464
8863.09     50.310    26.743
8992.01     50.340   126.994
9122.80     50.843  -124.651
9255.50     50.998   -12.814
9390.12     50.417   108.714
9526.70     50.666  -124.030
9665.27     50.046    13.498
9805.86     50.035   156.462
9948.49     50.254   -50.422
10093.2     50.511   107.426
10240.0     50.446   -86.990
10388.9     50.886    85.456
10540.1     51.124   -94.236
10693.4     51.122    91.993
10848.9     51.130   -73.296
11006.7     51.266   130.045
11166.8     51.046   -18.705
11329.2     50.946  -158.826
11494.0     50.719    67.561
11661.2     50.422   -55.884
11830.8     50.410  -167.425
12002.9     50.181    84.533
12177.5     49.972   -13.474
12354.6     49.457  -102.605
12534.3     49.285   176.610
12716.6     48.874   105.418
12901.6     47.731    43.427
13089.2     46.605    -6.448
13279.6     45.745   -42.875
13472.8     44.674   -66.062
13668.8     44.924   -81.602
13867.6     44.482   -92.885
14069.3     42.727   -87.667
14273.9     42.051   -59.705
14481.5     43.867   -30.072
14692.2     44.540     0.281
14905.9     44.618    45.677
15122.7     45.028   100.782
15342.7     45.910   165.529
15565.8     46.395  -122.884
15792.2     46.134   -38.633
16021.9     45.523    56.965
16255.0     44.257   169.814
16491.4     43.929   -54.702
16731.3     44.757    83.303
16974.7     44.763  -129.710
17221.6     44.457    30.370
17472.1     43.793  -158.939
17726.2     42.470    23.352
17984.0     40.678  -136.984
18245.6     38.854    78.978
18511.0     37.716   -45.060
18780.2     37.664  -155.494
19053.4     37.570   104.041
19330.5     37.975    14.533
19611.7     37.073   -63.413
19897.0     36.021  -122.741
20186.4     34.878  -170.348
20480.0     32.338   158.370
20777.9     31.304   152.753
21080.1     31.458   161.570
21386.7     29.463   177.713
21697.8     28.534  -141.339
22013.4     28.245   -82.482
22333.6     29.554   -15.362
22658.4     29.845    52.491
22988.0     28.831   138.459
23322.4     25.344  -114.363
23661.6     21.939    94.909
24005.8     16.959    94.783
24355.0     16.890     1.785
24709.2     22.755   -54.946
25068.6     24.855   147.456
25433.2     24.969     0.051
25803.2     25.176  -112.652
26178.5     27.457   143.675
26559.3     28.622    58.322
26945.6     28.866    -8.040
27337.5     28.225   -45.433
27735.2     27.262   -70.916
28138.6     27.140   -85.079
28547.9     26.444   -63.912
28963.1     26.381   -29.815
29384.4     23.144    37.722
29811.8     23.334   160.091
30245.4     22.149   -39.059
30685.3     19.580   128.323
31131.7     17.596    43.607
31584.5     17.460   -77.253
32043.9     17.564    96.421
32510.0     17.984   -13.828
32982.8     16.608    -2.557
33462.6     17.623   164.316
33949.3     15.485   -94.976
34443.1     17.783   -64.891
34944.1     15.413    45.405
35452.4     17.113   -56.935
35968.0     16.532   -24.488
36491.2     17.185    32.504
37022.0     16.921   121.864
37560.5     16.933    -7.238
38106.8     15.599    -2.905
38661.1     16.649   -34.457
39223.4     17.823    28.399
39793.9     15.603    76.256
