Freq[Hz]     dBSPL  Phase[Deg]
5.00000    -11.692    44.527
5.07273    -11.759    45.107
5.14651    -11.988    46.259
5.22137    -12.672    49.009
5.29732    -13.356    51.760
5.37437    -14.040    54.510
5.45254    -14.724    57.261
5.53185    -15.209    64.562
5.61231    -15.483    76.678
5.69394    -15.757    88.794
5.77676    -16.031   100.909
5.86079    -16.280   112.921
5.94604    -15.071   118.834
6.03252    -13.862   124.748
6.12027    -12.653   130.661
6.20929    -11.444   136.575
6.29961    -10.794   137.496
6.39124    -10.268   137.310
6.48420     -9.742   137.124
6.57851     -9.216   136.938
6.67420     -9.562   136.235
6.77128    -10.050   135.449
6.86977    -10.538   134.662
6.96969    -11.253   135.225
7.07107    -13.693   146.048
7.17392    -16.134   156.872
7.27827    -18.575   167.696
7.38413    -18.129  -174.014
7.49154    -15.453  -149.957
7.60050    -12.777  -125.900
7.71105    -10.282  -106.358
7.82321     -8.586  -106.648
7.93701     -6.890  -106.938
8.05245     -5.194  -107.228
8.16958     -4.904  -108.847
8.28841     -4.667  -110.515
8.40896     -4.430  -112.183
8.53128     -6.075  -109.069
8.65537     -7.962  -105.337
8.78126     -9.849  -101.606
8.90899     -8.453   -63.307
9.03857     -6.843   -22.744
9.17004     -4.998    13.605
9.30342     -1.290    16.410
9.43874      2.418    19.214
9.57603      5.537    20.574
9.71532      7.758    19.729
9.85663      9.978    18.884
10.0000     11.741    17.768
10.1455     13.376    16.576
10.2930     14.934    15.312
10.4427     16.278    13.845
10.5946     17.621    12.378
10.7487     18.830    10.424
10.9051     20.012     8.374
11.0637     21.112     5.966
11.2246     22.123     3.177
11.3879     23.091     0.256
11.5535     23.897    -3.150
11.7216     24.700    -6.561
11.8921     25.270   -10.252
12.0650     25.840   -13.943
12.2405     26.192   -17.443
12.4186     26.516   -20.917
12.5992     26.659   -23.677
12.7825     26.762   -26.278
12.9684     26.761   -27.608
13.1570     26.736   -28.641
13.3484     26.769   -28.145
13.5426     26.811   -27.401
13.7395     27.096   -25.945
13.9394     27.415   -24.571
14.1421     27.928   -24.036
14.3478     28.443   -24.014
14.5565     28.964   -25.097
14.7683     29.386   -26.786
14.9831     29.733   -28.943
15.2010     29.862   -31.100
15.4221     29.912   -33.023
15.6464     29.778   -33.919
15.8740     29.610   -33.491
16.1049     29.417   -32.005
16.3392     29.471   -28.257
16.5768     29.723   -24.307
16.8179     30.246   -20.184
17.0626     31.038   -17.709
17.3107     31.871   -16.291
17.5625     32.717   -16.161
17.8180     33.436   -17.274
18.0771     34.065   -18.726
18.3401     34.601   -20.426
18.6068     35.018   -22.131
18.8775     35.371   -23.706
19.1521     35.675   -25.170
19.4306     35.934   -26.523
19.7133     36.134   -27.734
20.0000     36.276   -28.729
20.2909     36.373   -29.395
20.5860     36.439   -29.602
20.8855     36.500   -29.220
21.1893     36.624   -28.111
21.4975     36.863   -26.679
21.8102     37.223   -25.306
22.1274     37.690   -24.306
22.4492     38.231   -23.886
22.7758     38.809   -24.104
23.1071     39.395   -24.888
23.4432     39.971   -26.126
23.7841     40.534   -27.763
24.1301     41.074   -29.726
24.4811     41.576   -31.935
24.8372     42.025   -34.233
25.1984     42.417   -36.374
25.5649     42.769   -38.081
25.9368     43.124   -39.151
26.3141     43.544   -39.599
26.6968     44.077   -39.720
27.0851     44.728   -39.979
27.4791     45.460   -40.775
27.8788     46.194   -42.207
28.2843     46.881   -44.052
28.6957     47.501   -46.003
29.1131     48.068   -47.809
29.5365     48.612   -49.372
29.9661     49.164   -50.770
30.4020     49.736   -52.182
30.8442     50.314   -53.797
31.2929     50.881   -55.620
31.7480     51.424   -57.561
32.2098     51.951   -59.507
32.6783     52.482   -61.406
33.1536     53.030   -63.313
33.6359     53.597   -65.307
34.1251     54.174   -67.416
34.6215     54.751   -69.574
35.1250     55.333   -71.717
35.6359     55.926   -73.866
36.1543     56.527   -76.104
36.6802     57.121   -78.484
37.2137     57.685   -80.966
37.7550     58.224   -83.462
38.3041     58.744   -85.955
38.8613     59.259   -88.518
39.4265     59.772   -91.273
40.0000     60.276   -94.275
40.5818     60.766   -97.535
41.1721     61.240  -100.996
41.7710     61.703  -104.584
42.3785     62.159  -108.264
42.9949     62.601  -111.948
43.6203     63.033  -115.501
44.2548     63.474  -118.833
44.8985     63.938  -122.127
45.5515     64.386  -125.566
46.2141     64.777  -129.014
46.8863     65.127  -132.227
47.5683     65.486  -135.459
48.2602     65.813  -139.198
48.9621     66.035  -143.157
49.6743     66.207  -146.680
50.3968     66.464  -149.966
51.1299     66.800  -153.816
51.8736     67.099  -158.152
52.6281     67.350  -162.223
53.3936     67.619  -165.870
54.1702     67.899  -169.366
54.9581     68.141  -172.649
55.7575     68.350  -175.679
56.5685     68.518  -178.658
57.3914     68.633   178.336
58.2261     68.710   175.254
59.0730     68.768   172.013
59.9323     68.831   168.667
60.8040     68.926   165.264
61.6884     69.062   161.961
62.5857     69.250   158.896
63.4960     69.462   156.038
64.4196     69.642   153.515
65.3566     69.780   151.459
66.3073     69.877   149.578
67.2717     69.913   147.638
68.2502     69.902   145.542
69.2429     69.877   143.225
70.2501     69.874   140.665
71.2719     69.910   137.919
72.3086     69.984   135.174
73.3603     70.085   132.561
74.4274     70.183   130.187
75.5099     70.261   127.995
76.6083     70.291   125.862
77.7226     70.292   123.832
78.8531     70.314   121.639
80.0000     70.363   119.222
81.1636     70.467   116.679
82.3442     70.601   114.113
83.5419     70.760   111.817
84.7570     70.923   109.750
85.9899     71.058   107.934
87.2406     71.157   106.289
88.5096     71.229   104.722
89.7970     71.287   102.992
91.1031     71.320   101.000
92.4282     71.324    98.843
93.7726     71.310    96.676
95.1366     71.302    94.664
96.5204     71.328    92.852
97.9243     71.397    91.133
99.3486     71.473    89.551
100.794     71.575    87.968
102.260     71.648    86.194
103.747     71.716    84.321
105.256     71.786    82.285
106.787     71.867    80.159
108.340     71.948    78.098
109.916     72.014    76.233
111.515     72.070    74.621
113.137     72.132    72.977
114.783     72.189    71.184
116.452     72.254    69.321
118.146     72.328    67.502
119.865     72.418    65.779
121.608     72.500    64.075
123.377     72.567    62.295
125.171     72.623    60.406
126.992     72.683    58.355
128.839     72.760    56.315
130.713     72.834    54.315
132.615     72.869    52.506
134.543     72.878    50.814
136.500     72.910    48.991
138.486     72.954    47.092
140.500     72.990    45.154
142.544     73.005    43.284
144.617     72.976    41.584
146.721     72.966    39.942
148.855     73.052    37.879
151.020     73.144    35.676
153.217     73.140    33.760
155.445     73.109    31.948
157.706     73.025    29.547
160.000     72.888    27.952
162.327     72.902    27.186
164.688     72.939    26.053
167.084     73.032    24.564
169.514     73.093    21.630
171.980     72.940    19.431
174.481     72.786    18.565
177.019     72.712    17.769
179.594     72.715    16.681
182.206     72.762    15.389
184.856     72.832    14.331
187.545     72.898    13.153
190.273     72.963    11.546
193.041     73.025     9.588
195.849     73.070     7.742
198.697     73.059     5.627
201.587     72.966     3.477
204.520     72.868     1.808
207.494     72.832     0.192
210.512     72.792    -1.120
213.574     72.751    -3.326
216.681     72.568    -4.332
219.833     72.536    -5.164
223.030     72.439    -6.254
226.274     72.409    -6.859
229.565     72.481    -7.775
232.905     72.495    -9.070
236.292     72.576   -10.326
239.729     72.623   -11.943
243.216     72.613   -13.569
246.754     72.608   -15.362
250.343     72.521   -16.692
253.984     72.529   -17.599
257.678     72.669   -19.232
261.426     72.665   -21.317
265.229     72.576   -23.087
269.087     72.425   -24.792
273.001     72.362   -25.234
276.972     72.444   -26.485
281.000     72.465   -27.758
285.088     72.447   -29.351
289.234     72.545   -30.560
293.441     72.593   -33.245
297.709     72.495   -34.639
302.040     72.509   -36.868
306.433     72.291   -39.096
310.890     72.302   -39.772
315.412     72.295   -42.073
320.000     72.234   -44.122
324.655     71.993   -45.962
329.377     71.976   -47.092
334.168     71.866   -48.840
339.028     71.808   -50.295
343.959     71.770   -52.346
348.962     71.601   -54.773
354.038     71.381   -56.715
359.188     71.298   -58.579
364.412     71.067   -61.028
369.713     70.843   -63.791
375.090     70.456   -65.072
380.546     70.371   -66.540
386.081     70.155   -68.493
391.697     70.021   -70.518
397.394     69.794   -72.833
403.175     69.563   -74.818
409.039     69.370   -76.280
414.989     69.229   -78.209
421.025     69.073   -79.743
427.149     68.924   -81.634
433.362     68.816   -83.113
439.665     68.719   -84.819
446.060     68.595   -86.395
452.548     68.528   -87.889
459.131     68.444   -89.203
465.809     68.366   -90.460
472.584     68.303   -91.507
479.458     68.225   -92.447
486.432     68.180   -93.455
493.507     68.132   -94.508
500.686     68.106   -95.553
507.968     68.060   -96.621
515.357     68.034   -97.723
522.853     68.000   -98.889
530.458     67.961  -100.141
538.174     67.940  -101.375
546.002     67.903  -102.598
553.943     67.855  -103.934
562.001     67.832  -105.380
570.175     67.794  -106.730
578.469     67.759  -108.147
586.883     67.719  -109.614
595.419     67.689  -111.077
604.080     67.666  -112.480
612.866     67.626  -113.846
621.780     67.598  -115.309
630.824     67.545  -116.847
640.000     67.531  -118.249
649.309     67.493  -119.723
658.753     67.462  -121.166
668.335     67.420  -122.667
678.056     67.395  -124.222
687.919     67.357  -125.739
697.925     67.333  -127.379
708.077     67.309  -128.796
718.376     67.282  -130.300
728.825     67.266  -131.798
739.426     67.240  -133.200
750.181     67.240  -134.703
761.093     67.241  -136.072
772.163     67.261  -137.402
783.394     67.286  -138.749
794.789     67.341  -140.280
806.349     67.423  -141.697
818.078     67.534  -143.284
829.977     67.654  -144.973
842.050     67.819  -146.886
854.298     67.971  -148.872
866.724     68.140  -151.198
879.330     68.304  -153.831
892.120     68.478  -156.763
905.097     68.629  -159.937
918.262     68.763  -163.387
931.618     68.875  -167.049
945.169     68.949  -170.883
958.917     68.991  -174.838
972.864     68.980  -178.855
987.015     68.933   177.001
1001.37     68.848   172.923
1015.94     68.710   168.976
1030.71     68.547   165.117
1045.71     68.359   161.541
1060.92     68.153   157.996
1076.35     67.965   154.821
1092.00     67.779   151.876
1107.89     67.626   148.937
1124.00     67.517   146.173
1140.35     67.438   143.160
1156.94     67.391   139.953
1173.77     67.368   136.426
1190.84     67.333   132.448
1208.16     67.294   128.070
1225.73     67.203   123.325
1243.56     67.041   118.119
1261.65     66.807   112.702
1280.00     66.496   107.193
1298.62     66.060   101.787
1317.51     65.526    96.485
1336.67     64.887    91.512
1356.11     64.148    87.240
1375.84     63.339    83.699
1395.85     62.490    81.278
1416.15     61.699    79.798
1436.75     60.983    79.557
1457.65     60.453    79.715
1478.85     60.068    79.964
1500.36     59.847    79.670
1522.19     59.697    78.560
1544.33     59.546    76.795
1566.79     59.367    74.192
1589.58     59.118    71.491
1612.70     58.829    68.666
1636.16     58.488    66.181
1659.95     58.165    63.667
1684.10     57.844    61.117
1708.60     57.631    57.899
1733.45     57.418    54.352
1758.66     57.192    50.107
1784.24     56.880    44.683
1810.19     56.454    38.988
1836.52     55.888    32.568
1863.24     55.195    26.227
1890.34     54.461    19.486
1917.83     53.736    12.861
1945.73     53.071     5.452
1974.03     52.435    -3.685
2002.74     51.883   -14.800
2031.87     51.311   -28.621
2061.43     50.847   -44.583
2091.41     50.467   -61.718
2121.83     50.251   -77.999
2152.69     50.131   -92.339
2184.01     50.462  -103.610
2215.77     51.158  -111.306
2248.00     52.235  -118.059
2280.70     53.598  -125.043
2313.87     54.898  -132.614
2347.53     56.022  -140.570
2381.68     56.930  -147.844
2416.32     57.695  -153.906
2451.46     58.529  -158.765
2487.12     59.499  -163.259
2523.30     60.547  -168.723
2560.00     61.557  -175.561
2597.24     62.347   176.685
2635.01     62.880   168.851
2673.34     63.199   161.821
2712.23     63.436   155.967
2751.68     63.754   150.919
2791.70     64.163   145.706
2832.31     64.578   139.467
2873.50     64.818   132.370
2915.30     64.800   125.299
2957.70     64.542   119.345
3000.72     64.217   115.305
3044.37     64.058   112.770
3088.65     64.117   110.244
3133.58     64.225   106.768
3179.16     64.226   102.646
3225.40     64.088    99.117
3272.31     63.985    96.707
3319.91     64.060    94.620
3368.20     64.253    91.379
3417.19     64.368    86.765
3466.89     64.236    81.768
3517.32     63.913    77.601
3568.48     63.542    74.856
3620.39     63.296    72.894
3673.05     63.148    70.754
3726.47     62.969    67.928
3780.67     62.656    65.057
3835.67     62.191    63.128
3891.46     61.733    62.667
3948.06     61.420    63.233
4005.49     61.292    63.964
4063.75     61.244    64.492
4122.86     61.195    64.882
4182.82     61.181    66.170
4243.66     61.501    68.189
4305.39     62.212    67.811
4368.01     62.720    63.639
4431.55     62.676    59.283
4496.01     62.551    58.025
4561.40     62.802    56.582
4627.75     62.873    52.492
4695.06     62.484    50.075
4763.35     62.341    51.121
4832.64     62.696    50.855
4902.93     62.979    48.446
4974.24     63.168    45.654
5046.60     63.293    42.504
5120.00     63.386    39.243
5194.47     63.475    34.478
5270.03     63.066    28.665
5346.68     62.304    26.603
5424.45     61.974    26.562
5503.35     61.589    25.116
5583.40     61.185    26.351
5664.61     61.288    27.376
5747.01     61.398    26.156
5830.60     61.351    22.943
5915.41     60.663    20.489
6001.45     60.130    23.524
6088.74     60.019    25.292
6177.30     59.803    30.402
6267.15     60.819    34.188
6358.31     61.564    31.458
6450.80     62.012    28.562
6544.62     62.241    24.987
6639.82     62.410    21.897
6736.40     62.332    18.608
6834.38     62.589    18.228
6933.79     63.081    11.692
7034.64     62.574     5.334
7136.96     62.119     1.899
7240.77     61.375    -1.302
7346.09     60.617     0.823
7452.94     60.922     2.943
7561.35     60.943    -0.580
7671.33     60.966    -1.781
7782.91     60.697    -8.245
7896.12     59.721    -9.520
8010.97     59.026    -9.522
8127.49     58.515    -6.166
8245.71     58.609    -3.852
8365.65     58.661    -4.139
8487.33     58.788    -4.945
8610.78     58.549    -7.092
8736.03     58.452    -8.851
8863.09     57.962   -10.162
8992.01     57.613   -12.558
9122.80     56.913   -12.257
9255.50     56.175   -11.453
9390.12     55.617    -7.164
9526.70     55.925    -2.711
9665.27     55.705    -2.804
9805.86     56.010    -2.775
9948.49     55.262    -2.135
10093.2     55.342     2.057
10240.0     55.490     4.065
10388.9     56.080     3.647
10540.1     55.947     0.882
10693.4     55.461    -0.491
10848.9     54.982     1.672
11006.7     54.838     6.318
11166.8     55.184     8.773
11329.2     55.582     8.795
11494.0     55.630    11.384
11661.2     56.432     9.729
11830.8     56.655     7.154
12002.9     56.341     2.892
12177.5     56.432     6.311
12354.6     57.141     5.365
12534.3     57.499    -4.372
12716.6     56.751   -10.425
12901.6     55.574    -9.439
13089.2     55.588    -9.885
13279.6     55.196   -13.457
13472.8     54.000   -10.800
13668.8     54.316    -6.671
13867.6     54.559    -9.500
14069.3     54.152   -10.086
14273.9     54.032   -11.339
14481.5     54.022   -14.416
14692.2     53.689   -16.139
14905.9     53.257   -20.790
15122.7     52.478   -25.714
15342.7     51.151   -30.984
15565.8     48.564   -31.458
15792.2     46.267   -15.545
16021.9     46.377     1.198
16255.0     47.651    12.971
16491.4     48.981    18.073
16731.3     50.955    18.212
16974.7     51.854     6.637
17221.6     51.498    -2.884
17472.1     50.491    -9.294
17726.2     49.384    -8.949
17984.0     49.042    -6.475
18245.6     49.007    -8.296
18511.0     48.437   -10.310
18780.2     48.116   -12.020
19053.4     47.497   -17.182
19330.5     46.098   -15.472
19611.7     46.053   -12.866
19897.0     45.941   -14.086
20186.4     45.980   -20.601
20480.0     44.584   -31.084
20777.9     42.506   -33.875
21080.1     40.869   -32.162
21386.7     38.986   -33.406
21697.8     37.385   -29.047
22013.4     35.595   -30.295
22333.6     31.706   -18.385
22658.4     31.012    11.222
22988.0     32.408    23.111
23322.4     32.277    19.223
23661.6     30.267    43.363
24005.8     33.925    56.933
24355.0     35.015    56.442
24709.2     34.920    61.250
25068.6     36.997    64.067
25433.2     37.288    59.348
25803.2     38.409    61.428
26178.5     39.961    52.018
26559.3     40.254    37.402
26945.6     39.281    23.662
27337.5     38.147    18.435
27735.2     36.764     6.159
28138.6     34.598     2.443
28547.9     33.299    -3.755
28963.1     30.266    -1.914
29384.4     28.342     2.564
29811.8     29.862     1.245
30245.4     28.496   -21.717
30685.3     23.950   -21.262
31131.7     21.811   -90.943
31584.5     21.068    71.288
32043.9     23.038    48.594
32510.0     21.883   -40.432
32982.8     18.897  -145.065
33462.6     17.629   -45.690
33949.3     16.931  -122.009
34443.1     16.203     0.789
34944.1     18.296   -82.012
35452.4     18.013    96.280
35968.0     16.028    80.549
36491.2     17.645    57.567
37022.0     18.498   -22.395
37560.5     17.673   132.790
38106.8     18.498    78.369
38661.1     18.615   -48.656
39223.4     18.775    31.953
39793.9     18.310  -165.430
