Freq[Hz]     dBSPL  Phase[Deg]
5.00000      1.972    23.150
5.07273      1.859    24.077
5.14651      1.656    25.630
5.22137      1.203    28.930
5.29732      0.750    32.229
5.37437      0.297    35.529
5.45254     -0.155    38.828
5.53185     -0.411    44.400
5.61231     -0.457    52.376
5.69394     -0.504    60.351
5.77676     -0.551    68.327
5.86079     -0.585    76.250
5.94604      0.137    81.089
6.03252      0.859    85.929
6.12027      1.581    90.768
6.20929      2.303    95.608
6.29961      2.789    97.062
6.39124      3.222    97.766
6.48420      3.656    98.470
6.57851      4.089    99.173
6.67420      3.990    99.262
6.77128      3.804    99.251
6.86977      3.618    99.239
6.96969      3.343    99.692
7.07107      2.385   103.676
7.17392      1.428   107.660
7.27827      0.470   111.645
7.38413      0.017   121.898
7.49154     -0.048   136.996
7.60050     -0.112   152.093
7.71105      0.112   165.457
7.82321      1.604   171.210
7.93701      3.096   176.963
8.05245      4.588  -177.285
8.16958      5.284  -178.075
8.28841      5.949  -179.110
8.40896      6.615   179.855
8.53128      6.300   178.144
8.65537      5.859   176.346
8.78126      5.418   174.548
8.90899      3.248  -178.176
9.03857      0.964  -170.306
9.17004     -0.835  -160.144
9.30342      1.226  -131.743
9.43874      3.286  -103.342
9.57603      5.557   -86.560
9.71532      8.149   -87.530
9.85663     10.741   -88.499
10.0000     12.199   -93.565
10.1455     13.340   -99.772
10.2930     14.226  -106.612
10.4427     14.399  -115.220
10.5946     14.571  -123.829
10.7487     13.979  -135.278
10.9051     13.233  -147.295
11.0637     12.068  -163.869
11.2246     10.460   174.735
11.3879      9.228   150.549
11.5535      9.365   116.191
11.7216      9.527    82.042
11.8921     11.159    60.270
12.0650     12.792    38.498
12.2405     13.398    23.973
12.4186     13.873    10.383
12.5992     12.833    -0.330
12.7825     11.457   -10.405
12.9684      4.980     5.738
13.1570     -2.684    27.987
13.3484      4.062    66.124
13.5426     13.148   106.841
13.7395     16.825   100.051
13.9394     20.085    91.257
14.1421     21.758    81.137
14.3478     23.083    70.973
14.5565     23.660    60.712
14.7683     23.642    50.843
14.9831     23.165    41.276
15.2010     21.455    34.417
15.4221     19.139    31.691
15.6464     15.078    45.090
15.8740     14.669    71.690
16.1049     17.176   108.831
16.3392     20.447   108.633
16.5768     22.914   103.693
16.8179     24.173    93.894
17.0626     24.027    81.796
17.3107     22.882    68.431
17.5625     20.494    53.587
17.8180     12.428    21.380
18.0771     11.489   -49.141
18.3401     17.517  -145.453
18.6068     21.808  -163.471
18.8775     23.688  -178.120
19.1521     23.698   170.307
19.4306     21.868   164.085
19.7133     16.699  -172.466
20.0000     20.275  -129.090
20.2909     25.850  -107.805
20.5860     30.380  -114.902
20.8855     33.110  -127.596
21.1893     34.519  -142.258
21.4975     35.035  -157.671
21.8102     34.700  -173.524
22.1274     33.416   170.442
22.4492     30.895   154.673
22.7758     26.268   140.940
23.1071     18.740   145.258
23.4432     15.067  -106.837
23.7841     22.672  -109.239
24.1301     24.733  -123.395
24.4811     24.107  -138.876
24.8372     20.909  -151.823
25.1984     13.388  -144.340
25.5649     13.495   -77.261
25.9368     18.305   -63.269
26.3141     20.532   -75.639
26.6968     20.149   -92.016
27.0851     17.710  -107.238
27.4791     13.358  -113.518
27.8788     10.126   -99.083
28.2843     11.945   -95.206
28.6957     14.764  -116.883
29.1131     17.037  -144.525
29.5365     18.353  -167.985
29.9661     18.318   177.303
30.4020     17.135   178.043
30.8442     17.675  -161.592
31.2929     20.821  -148.533
31.7480     23.721  -148.493
32.2098     25.515  -152.711
32.6783     26.442  -155.711
33.1536     27.170  -156.511
33.6359     28.008  -156.996
34.1251     28.835  -159.143
34.6215     29.391  -162.168
35.1250     29.768  -163.907
35.6359     30.428  -163.519
36.1543     31.608  -163.886
36.6802     32.992  -167.291
37.2137     34.163  -172.658
37.7550     35.100  -177.346
38.3041     36.059   179.742
38.8613     37.185   177.112
39.4265     38.305   173.718
40.0000     39.259   170.638
40.5818     40.200   168.893
41.1721     41.341   167.141
41.7710     42.503   163.816
42.3785     43.379   159.726
42.9949     44.103   157.226
43.6203     45.050   156.080
44.2548     46.306   153.583
44.8985     47.469   149.050
45.5515     48.414   144.477
46.2141     49.326   140.981
46.8863     50.376   137.784
47.5683     51.477   133.996
48.2602     52.545   129.934
48.9621     53.601   125.710
49.6743     54.614   121.219
50.3968     55.567   116.819
51.1299     56.537   112.649
51.8736     57.553   108.140
52.6281     58.541   103.078
53.3936     59.479    97.907
54.1702     60.422    92.701
54.9581     61.373    87.137
55.7575     62.290    81.259
56.5685     63.178    75.238
57.3914     64.042    69.045
58.2261     64.869    62.733
59.0730     65.669    56.384
59.9323     66.443    49.951
60.8040     67.186    43.470
61.6884     67.906    36.967
62.5857     68.601    30.335
63.4960     69.246    23.624
64.4196     69.853    16.981
65.3566     70.437    10.361
66.3073     70.994     3.691
67.2717     71.509    -2.989
68.2502     71.984    -9.579
69.2429     72.433   -16.039
70.2501     72.865   -22.451
71.2719     73.271   -28.867
72.3086     73.655   -35.316
73.3603     74.005   -41.801
74.4274     74.319   -48.187
75.5099     74.613   -54.458
76.6083     74.879   -60.559
77.7226     75.132   -66.406
78.8531     75.376   -72.145
80.0000     75.595   -77.787
81.1636     75.802   -83.391
82.3442     75.982   -89.046
83.5419     76.143   -94.650
84.7570     76.299  -100.207
85.9899     76.441  -105.682
87.2406     76.578  -110.875
88.5096     76.727  -115.939
89.7970     76.851  -120.986
91.1031     76.949  -125.926
92.4282     77.013  -130.911
93.7726     77.044  -135.631
95.1366     77.105  -140.302
96.5204     77.144  -144.842
97.9243     77.232  -149.113
99.3486     77.315  -153.498
100.794     77.400  -157.465
102.260     77.514  -161.665
103.747     77.585  -165.814
105.256     77.651  -170.030
106.787     77.711  -174.177
108.340     77.739  -178.514
109.916     77.757   177.589
111.515     77.785   173.640
113.137     77.820   169.821
114.783     77.856   165.937
116.452     77.893   162.037
118.146     77.925   158.223
119.865     77.951   154.470
121.608     77.974   150.768
123.377     77.984   147.035
125.171     77.989   143.251
126.992     77.989   139.520
128.839     77.986   135.825
130.713     77.964   132.144
132.615     77.910   128.608
134.543     77.850   125.101
136.500     77.815   121.591
138.486     77.780   118.389
140.500     77.710   115.075
142.544     77.610   111.632
144.617     77.512   108.535
146.721     77.446   105.789
148.855     77.505   103.025
151.020     77.392    98.946
153.217     77.276    96.355
155.445     77.137    93.469
157.706     77.000    90.561
160.000     76.825    87.905
162.327     76.721    85.807
164.688     76.646    83.577
167.084     76.608    81.222
169.514     76.542    77.872
171.980     76.291    75.226
174.481     76.136    73.583
177.019     76.043    71.676
179.594     75.978    69.697
182.206     75.897    67.831
184.856     75.823    66.130
187.545     75.779    64.133
190.273     75.755    61.913
193.041     75.721    59.626
195.849     75.656    57.434
198.697     75.571    55.006
201.587     75.427    52.630
204.520     75.251    50.719
207.494     75.127    49.185
210.512     75.050    47.782
213.574     74.996    45.539
216.681     74.810    43.790
219.833     74.709    42.452
223.030     74.611    40.987
226.274     74.488    39.941
229.565     74.433    38.766
232.905     74.396    37.419
236.292     74.399    36.153
239.729     74.381    34.657
243.216     74.374    32.983
246.754     74.311    31.307
250.343     74.255    29.986
253.984     74.207    28.523
257.678     74.180    26.763
261.426     74.173    24.861
265.229     74.127    22.747
269.087     73.957    20.797
273.001     73.812    19.105
276.972     73.566    17.015
281.000     73.164    16.972
285.088     73.119    18.047
289.234     73.255    18.002
293.441     73.338    16.715
297.709     73.373    15.241
302.040     73.377    13.686
306.433     73.215    12.182
310.890     73.234    11.714
315.412     73.231     9.995
320.000     73.144     8.989
324.655     73.006     8.062
329.377     73.049     7.980
334.168     73.098     6.318
339.028     73.056     5.534
343.959     73.093     3.864
348.962     73.018     2.580
354.038     72.895     1.627
359.188     72.875     1.162
364.412     72.897     0.145
369.713     72.918    -1.083
375.090     72.841    -1.819
380.546     72.862    -2.675
386.081     72.917    -3.883
391.697     72.887    -5.002
397.394     72.879    -6.167
403.175     72.875    -7.423
409.039     72.809    -8.203
414.989     72.876    -9.012
421.025     72.964   -10.562
427.149     72.908   -12.438
433.362     72.878   -13.143
439.665     72.992   -15.119
446.060     72.855   -17.024
452.548     72.825   -19.225
459.131     72.481   -21.646
465.809     72.055   -22.867
472.584     71.537   -20.885
479.458     71.662   -18.615
486.432     71.866   -19.263
493.507     71.823   -20.333
500.686     71.752   -20.841
507.968     71.679   -21.177
515.357     71.634   -21.375
522.853     71.603   -21.829
530.458     71.515   -22.196
538.174     71.430   -22.520
546.002     71.354   -22.543
553.943     71.298   -22.634
562.001     71.236   -22.581
570.175     71.199   -22.409
578.469     71.156   -22.319
586.883     71.127   -22.088
595.419     71.140   -21.794
604.080     71.137   -21.522
612.866     71.176   -21.173
621.780     71.238   -20.971
630.824     71.303   -20.822
640.000     71.388   -20.667
649.309     71.486   -20.753
658.753     71.582   -20.853
668.335     71.687   -21.042
678.056     71.789   -21.336
687.919     71.893   -21.678
697.925     72.003   -22.028
708.077     72.101   -22.368
718.376     72.213   -22.722
728.825     72.337   -23.063
739.426     72.484   -23.314
750.181     72.647   -23.622
761.093     72.849   -23.995
772.163     73.073   -24.471
783.394     73.333   -25.110
794.789     73.619   -25.994
806.349     73.921   -27.161
818.078     74.235   -28.665
829.977     74.541   -30.503
842.050     74.840   -32.705
854.298     75.115   -35.244
866.724     75.349   -38.097
879.330     75.552   -41.285
892.120     75.707   -44.677
905.097     75.802   -48.287
918.262     75.839   -52.051
931.618     75.811   -55.909
945.169     75.722   -59.756
958.917     75.562   -63.560
972.864     75.334   -67.171
987.015     75.037   -70.596
1001.37     74.666   -73.661
1015.94     74.238   -76.308
1030.71     73.767   -78.374
1045.71     73.263   -79.788
1060.92     72.745   -80.462
1076.35     72.261   -80.337
1092.00     71.844   -79.424
1107.89     71.520   -77.814
1124.00     71.322   -75.801
1140.35     71.282   -73.656
1156.94     71.383   -71.560
1173.77     71.596   -69.857
1190.84     71.901   -68.771
1208.16     72.273   -68.308
1225.73     72.685   -68.490
1243.56     73.113   -69.278
1261.65     73.537   -70.674
1280.00     73.944   -72.533
1298.62     74.323   -74.826
1317.51     74.674   -77.489
1336.67     74.986   -80.431
1356.11     75.261   -83.594
1375.84     75.503   -86.904
1395.85     75.707   -90.340
1416.15     75.889   -93.846
1436.75     76.047   -97.400
1457.65     76.191  -101.051
1478.85     76.323  -104.808
1500.36     76.442  -108.658
1522.19     76.545  -112.692
1544.33     76.627  -116.913
1566.79     76.681  -121.354
1589.58     76.697  -126.029
1612.70     76.666  -130.869
1636.16     76.570  -135.887
1659.95     76.394  -141.057
1684.10     76.117  -146.250
1708.60     75.720  -151.299
1733.45     75.183  -155.872
1758.66     74.500  -159.652
1784.24     73.701  -161.966
1810.19     72.878  -162.231
1836.52     72.209  -160.149
1863.24     71.915  -156.433
1890.34     72.094  -152.906
1917.83     72.610  -151.328
1945.73     73.217  -152.112
1974.03     73.719  -154.798
2002.74     74.034  -158.467
2031.87     74.161  -162.171
2061.43     74.169  -165.303
2091.41     74.156  -167.633
2121.83     74.214  -169.482
2152.69     74.366  -171.496
2184.01     74.548  -174.155
2215.77     74.668  -177.437
2248.00     74.661   179.236
2280.70     74.552   176.558
2313.87     74.450   174.974
2347.53     74.494   174.171
2381.68     74.744   173.133
2416.32     75.107   170.878
2451.46     75.411   167.246
2487.12     75.528   162.919
2523.30     75.436   158.962
2560.00     75.237   156.332
2597.24     75.122   155.178
2635.01     75.241   154.513
2673.34     75.563   152.927
2712.23     75.899   149.796
2751.68     76.081   145.616
2791.70     76.041   141.533
2832.31     75.860   138.558
2873.50     75.728   136.984
2915.30     75.794   135.947
2957.70     76.025   134.066
3000.72     76.227   130.850
3044.37     76.235   127.100
3088.65     76.046   124.198
3133.58     75.856   123.048
3179.16     75.907   122.923
3225.40     76.219   121.964
3272.31     76.552   119.328
3319.91     76.705   115.874
3368.20     76.705   112.977
3417.19     76.732   111.063
3466.89     76.902   109.185
3517.32     77.126   106.442
3568.48     77.253   103.028
3620.39     77.265    99.791
3673.05     77.246    97.144
3726.47     77.269    94.831
3780.67     77.347    92.467
3835.67     77.453    89.811
3891.46     77.546    86.729
3948.06     77.575    83.404
4005.49     77.552    80.278
4063.75     77.546    77.260
4122.86     77.533    73.723
4182.82     77.368    69.811
4243.66     77.023    66.873
4305.39     76.742    65.550
4368.01     76.680    64.250
4431.55     76.611    61.794
4496.01     76.361    59.614
4561.40     76.160    58.978
4627.75     76.215    58.166
4695.06     76.266    55.717
4763.35     76.094    53.273
4832.64     75.957    52.244
4902.93     76.059    50.552
4974.24     76.022    46.689
5046.60     75.543    43.408
5120.00     75.038    43.362
5194.47     74.958    43.829
5270.03     74.903    42.201
5346.68     74.577    41.079
5424.45     74.395    41.732
5503.35     74.456    41.068
5583.40     74.223    39.137
5664.61     73.797    40.025
5747.01     73.884    42.109
5830.60     74.026    41.267
5915.41     73.915    41.926
6001.45     74.380    42.656
6088.74     74.641    38.297
6177.30     74.202    36.121
6267.15     74.183    36.177
6358.31     73.975    33.241
6450.80     73.407    33.786
6544.62     73.266    34.839
6639.82     72.743    36.269
6736.40     72.732    42.740
6834.38     73.524    45.790
6933.79     74.220    45.328
7034.64     74.757    43.046
7136.96     75.013    39.788
7240.77     74.931    37.045
7346.09     74.851    37.024
7452.94     75.136    35.721
7561.35     75.013    33.228
7671.33     74.934    32.686
7782.91     74.691    31.544
7896.12     74.582    33.968
8010.97     74.793    33.875
8127.49     74.835    36.092
8245.71     75.498    35.257
8365.65     75.377    34.654
8487.33     76.130    35.337
8610.78     76.293    31.558
8736.03     76.703    30.287
8863.09     76.642    25.783
8992.01     76.771    24.955
9122.80     76.584    20.544
9255.50     76.474    21.249
9390.12     76.426    17.675
9526.70     76.185    17.679
9665.27     75.877    16.309
9805.86     75.854    18.616
9948.49     75.913    17.938
10093.2     76.080    18.976
10240.0     76.254    17.404
10388.9     76.458    17.041
10540.1     76.447    14.210
10693.4     76.462    13.688
10848.9     76.285    12.555
11006.7     76.410    12.158
11166.8     76.347    11.854
11329.2     76.451    10.594
11494.0     76.382    10.521
11661.2     76.499     9.564
11830.8     76.613     9.202
12002.9     76.508     8.072
12177.5     76.800     6.953
12354.6     76.794     6.237
12534.3     76.698     4.503
12716.6     76.809     2.651
12901.6     76.752     2.378
13089.2     76.639     1.609
13279.6     76.737     0.314
13472.8     76.747    -0.790
13668.8     76.682    -1.730
13867.6     76.573    -2.928
14069.3     76.593    -4.001
14273.9     76.509    -4.358
14481.5     76.368    -4.040
14692.2     76.470    -4.105
14905.9     76.792    -5.681
15122.7     76.959    -8.057
15342.7     76.851   -10.694
15565.8     76.534   -13.181
15792.2     76.209   -14.617
16021.9     75.900   -15.103
16255.0     75.704   -14.342
16491.4     75.606   -13.736
16731.3     75.497   -13.297
16974.7     75.419   -12.119
17221.6     75.732   -10.229
17472.1     76.323   -11.344
17726.2     76.664   -14.518
17984.0     76.853   -17.605
18245.6     77.066   -22.004
18511.0     76.906   -27.510
18780.2     76.417   -32.161
19053.4     75.783   -34.579
19330.5     75.320   -35.735
19611.7     74.868   -37.579
19897.0     74.174   -38.757
20186.4     72.854   -35.598
20480.0     73.801   -17.498
20777.9     76.478   -28.840
21080.1     76.292   -40.352
21386.7     75.702   -47.466
21697.8     75.101   -52.414
22013.4     74.556   -56.400
22333.6     73.949   -60.560
22658.4     73.233   -63.784
22988.0     72.594   -66.542
23322.4     71.902   -69.631
23661.6     71.070   -71.887
24005.8     70.345   -73.159
24355.0     69.669   -75.033
24709.2     68.958   -76.539
25068.6     68.244   -78.325
25433.2     67.457   -80.358
25803.2     66.616   -81.443
26178.5     65.789   -82.676
26559.3     65.033   -83.790
26945.6     64.108   -85.666
27337.5     63.102   -86.780
27735.2     61.907   -87.609
28138.6     60.935   -84.435
28547.9     60.188   -86.094
28963.1     58.947   -85.387
29384.4     57.896   -84.830
29811.8     56.740   -82.923
30245.4     55.459   -83.073
30685.3     53.502   -80.459
31131.7     50.623   -71.171
31584.5     52.767   -22.123
32043.9     56.288   -60.884
32510.0     53.650   -66.248
32982.8     52.109   -63.789
33462.6     51.242   -61.951
33949.3     49.924   -61.609
34443.1     48.597   -55.806
34944.1     48.280   -52.133
35452.4     47.509   -51.693
35968.0     45.513   -57.592
36491.2     43.639   -36.941
37022.0     43.976   -29.800
37560.5     43.792   -27.077
38106.8     42.971   -25.017
38661.1     42.142   -20.303
39223.4     41.578   -14.494
39793.9     41.104    -8.229
