Freq[Hz]     dBSPL  Phase[Deg]
5.00000      2.277    23.456
5.07273      2.162    24.413
5.14651      1.957    25.996
5.22137      1.501    29.326
5.29732      1.046    32.657
5.37437      0.591    35.987
5.45254      0.135    39.317
5.53185     -0.124    44.918
5.61231     -0.174    52.922
5.69394     -0.225    60.926
5.77676     -0.276    68.930
5.86079     -0.314    76.881
5.94604      0.402    81.745
6.03252      1.118    86.608
6.12027      1.834    91.471
6.20929      2.550    96.334
6.29961      3.029    97.806
6.39124      3.456    98.525
6.48420      3.882    99.245
6.57851      4.308    99.964
6.67420      4.201   100.059
6.77128      4.006   100.053
6.86977      3.812   100.047
6.96969      3.528   100.504
7.07107      2.561   104.480
7.17392      1.595   108.457
7.27827      0.628   112.433
7.38413      0.165   122.671
7.49154      0.091   137.746
7.60050      0.017   152.820
7.71105      0.231   166.159
7.82321      1.714   171.873
7.93701      3.197   177.588
8.05245      4.680  -176.698
8.16958      5.366  -177.543
8.28841      6.022  -178.633
8.40896      6.679  -179.723
8.53128      6.356   178.498
8.65537      5.908   176.629
8.78126      5.459   174.760
8.90899      3.282  -178.049
9.03857      0.992  -170.265
9.17004     -0.812  -160.191
9.30342      1.245  -131.889
9.43874      3.302  -103.587
9.57603      5.570   -86.909
9.71532      8.160   -87.989
9.85663     10.751   -89.068
10.0000     12.210   -94.251
10.1455     13.354  -100.576
10.2930     14.243  -107.535
10.4427     14.421  -116.267
10.5946     14.598  -124.998
10.7487     14.015  -136.571
10.9051     13.279  -148.710
11.0637     12.126  -165.405
11.2246     10.530   173.081
11.3879      9.311   148.779
11.5535      9.466   114.312
11.7216      9.647    80.055
11.8921     11.300    58.190
12.0650     12.954    36.325
12.2405     13.585    21.727
12.4186     14.084     8.066
12.5992     13.072    -2.695
12.7825     11.724   -12.814
12.9684      5.277     3.312
13.1570     -2.358    25.550
13.3484      4.420    63.709
13.5426     13.538   104.452
13.7395     17.248    97.727
13.9394     20.540    89.006
14.1421     22.243    78.994
14.3478     23.598    68.950
14.5565     24.203    58.838
14.7683     24.211    49.138
14.9831     23.757    39.755
15.2010     22.068    33.107
15.4221     19.769    30.600
15.6464     15.721    44.236
15.8740     15.321    71.080
16.1049     17.834   108.470
16.3392     21.104   108.524
16.5768     23.567   103.832
16.8179     24.818    94.276
17.0626     24.658    82.407
17.3107     23.498    69.257
17.5625     21.090    54.615
17.8180     13.001    22.579
18.0771     12.035   -47.790
18.3401     18.036  -143.973
18.6068     22.299  -161.893
18.8775     24.149  -176.473
19.1521     24.130   171.998
19.4306     22.272   165.798
19.7133     17.075  -170.763
20.0000     20.625  -127.419
20.2909     26.177  -106.185
20.5860     30.687  -113.350
20.8855     33.398  -126.127
21.1893     34.794  -140.884
21.4975     35.299  -156.397
21.8102     34.957  -172.352
22.1274     33.669   171.516
22.4492     31.148   155.655
22.7758     26.524   141.840
23.1071     19.000   146.093
23.4432     15.336  -106.049
23.7841     22.950  -108.474
24.1301     25.021  -122.629
24.4811     24.405  -138.084
24.8372     21.215  -150.983
25.1984     13.700  -143.431
25.5649     13.809   -76.266
25.9368     18.620   -62.176
26.3141     20.842   -74.443
26.6968     20.451   -90.719
27.0851     18.000  -105.847
27.4791     13.631  -112.050
27.8788     10.379   -97.559
28.2843     12.178   -93.652
28.6957     14.975  -115.328
29.1131     17.225  -142.999
29.5365     18.520  -166.517
29.9661     18.468   178.689
30.4020     17.270   179.323
30.8442     17.799  -160.435
31.2929     20.938  -147.507
31.7480     23.837  -147.599
32.2098     25.633  -151.943
32.6783     26.568  -155.053
33.1536     27.307  -155.942
33.6359     28.160  -156.489
34.1251     29.001  -158.667
34.6215     29.572  -161.691
35.1250     29.963  -163.399
35.6359     30.634  -162.952
36.1543     31.822  -163.240
36.6802     33.210  -166.553
37.2137     34.380  -171.820
37.7550     35.313  -176.411
38.3041     36.264  -179.236
38.8613     37.379   178.209
39.4265     38.485   174.870
40.0000     39.424   171.826
40.5818     40.348   170.095
41.1721     41.473   168.337
41.7710     42.620   164.990
42.3785     43.481   160.860
42.9949     44.192   158.309
43.6203     45.127   157.101
44.2548     46.373   154.534
44.8985     47.528   149.926
45.5515     48.465   145.271
46.2141     49.372   141.690
46.8863     50.418   138.403
47.5683     51.517   134.521
48.2602     52.586   130.364
48.9621     53.644   126.047
49.6743     54.663   121.465
50.3968     55.623   116.982
51.1299     56.604   112.745
51.8736     57.634   108.187
52.6281     58.636   103.102
53.3936     59.589    97.936
54.1702     60.545    92.767
54.9581     61.507    87.269
55.7575     62.431    81.478
56.5685     63.321    75.555
57.3914     64.180    69.456
58.2261     64.998    63.222
59.0730     65.784    56.920
59.9323     66.543    50.496
60.8040     67.272    43.987
61.6884     67.982    37.427
62.5857     68.670    30.721
63.4960     69.314    23.937
64.4196     69.924    17.236
65.3566     70.514    10.581
66.3073     71.075     3.900
67.2717     71.595    -2.772
68.2502     72.070    -9.349
69.2429     72.518   -15.797
70.2501     72.948   -22.206
71.2719     73.353   -28.625
72.3086     73.737   -35.076
73.3603     74.087   -41.554
74.4274     74.400   -47.922
75.5099     74.692   -54.166
76.6083     74.952   -60.242
77.7226     75.196   -66.080
78.8531     75.430   -71.838
80.0000     75.641   -77.526
81.1636     75.842   -83.197
82.3442     76.023   -88.920
83.5419     76.188   -94.576
84.7570     76.351  -100.154
85.9899     76.498  -105.619
87.2406     76.637  -110.781
88.5096     76.784  -115.813
89.7970     76.902  -120.845
91.1031     76.993  -125.800
92.4282     77.050  -130.825
93.7726     77.081  -135.595
95.1366     77.145  -140.301
96.5204     77.188  -144.847
97.9243     77.280  -149.094
99.3486     77.362  -153.443
100.794     77.440  -157.385
102.260     77.546  -161.583
103.747     77.608  -165.757
105.256     77.667  -170.017
106.787     77.724  -174.218
108.340     77.751  -178.614
109.916     77.771   177.437
111.515     77.805   173.454
113.137     77.845   169.633
114.783     77.884   165.773
116.452     77.917   161.896
118.146     77.942   158.075
119.865     77.964   154.283
121.608     77.987   150.534
123.377     78.001   146.779
125.171     78.007   142.998
126.992     78.004   139.267
128.839     77.997   135.545
130.713     77.974   131.815
132.615     77.924   128.243
134.543     77.869   124.736
136.500     77.836   121.250
138.486     77.797   118.065
140.500     77.720   114.739
142.544     77.615   111.248
144.617     77.518   108.098
146.721     77.456   105.319
148.855     77.521   102.557
151.020     77.409    98.504
153.217     77.286    95.926
155.445     77.140    93.016
157.706     76.999    90.050
160.000     76.825    87.329
162.327     76.725    85.198
164.688     76.652    82.967
167.084     76.610    80.601
169.514     76.539    77.180
171.980     76.295    74.436
174.481     76.155    72.767
177.019     76.070    70.928
179.594     75.998    69.019
182.206     75.901    67.102
184.856     75.828    65.279
187.545     75.797    63.238
190.273     75.779    61.059
193.041     75.738    58.788
195.849     75.667    56.537
198.697     75.586    54.041
201.587     75.446    51.649
204.520     75.270    49.733
207.494     75.143    48.169
210.512     75.064    46.708
213.574     75.013    44.397
216.681     74.834    42.623
219.833     74.730    41.298
223.030     74.622    39.752
226.274     74.508    38.572
229.565     74.469    37.414
232.905     74.425    36.122
236.292     74.415    34.781
239.729     74.397    33.160
243.216     74.398    31.394
246.754     74.344    29.708
250.343     74.281    28.373
253.984     74.232    26.797
257.678     74.213    25.011
261.426     74.193    23.063
265.229     74.147    20.793
269.087     73.984    18.798
273.001     73.833    17.035
276.972     73.590    14.852
281.000     73.183    14.757
285.088     73.133    15.688
289.234     73.276    15.581
293.441     73.345    14.243
297.709     73.373    12.603
302.040     73.380    10.956
306.433     73.210     9.387
310.890     73.214     8.821
315.412     73.199     6.938
320.000     73.109     5.813
324.655     72.960     4.790
329.377     72.993     4.641
334.168     73.017     2.895
339.028     72.958     1.956
343.959     72.981     0.206
348.962     72.885    -1.127
354.038     72.732    -2.136
359.188     72.687    -2.731
364.412     72.691    -3.777
369.713     72.684    -5.038
375.090     72.584    -5.775
380.546     72.571    -6.615
386.081     72.600    -7.847
391.697     72.548    -8.924
397.394     72.513   -10.011
403.175     72.486   -11.227
409.039     72.397   -11.876
414.989     72.441   -12.650
421.025     72.515   -14.081
427.149     72.451   -15.863
433.362     72.408   -16.370
439.665     72.502   -18.231
446.060     72.359   -20.029
452.548     72.325   -22.118
459.131     71.978   -24.346
465.809     71.541   -25.441
472.584     71.021   -23.423
479.458     71.152   -21.025
486.432     71.366   -21.574
493.507     71.324   -22.538
500.686     71.261   -22.948
507.968     71.191   -23.231
515.357     71.165   -23.395
522.853     71.141   -23.782
530.458     71.066   -24.163
538.174     70.999   -24.474
546.002     70.948   -24.523
553.943     70.903   -24.587
562.001     70.853   -24.582
570.175     70.833   -24.471
578.469     70.805   -24.458
586.883     70.783   -24.347
595.419     70.800   -24.148
604.080     70.807   -24.093
612.866     70.856   -23.837
621.780     70.920   -23.794
630.824     70.985   -23.802
640.000     71.067   -23.801
649.309     71.160   -24.007
658.753     71.246   -24.324
668.335     71.342   -24.701
678.056     71.436   -25.159
687.919     71.526   -25.708
697.925     71.611   -26.232
708.077     71.692   -26.823
718.376     71.773   -27.366
728.825     71.865   -27.889
739.426     71.971   -28.380
750.181     72.096   -28.817
761.093     72.241   -29.301
772.163     72.412   -29.843
783.394     72.613   -30.529
794.789     72.845   -31.363
806.349     73.085   -32.439
818.078     73.344   -33.821
829.977     73.608   -35.483
842.050     73.857   -37.482
854.298     74.093   -39.818
866.724     74.300   -42.414
879.330     74.472   -45.308
892.120     74.603   -48.455
905.097     74.679   -51.755
918.262     74.699   -55.232
931.618     74.663   -58.799
945.169     74.572   -62.343
958.917     74.413   -65.811
972.864     74.195   -69.158
987.015     73.921   -72.272
1001.37     73.580   -75.063
1015.94     73.189   -77.467
1030.71     72.768   -79.418
1045.71     72.323   -80.763
1060.92     71.865   -81.515
1076.35     71.437   -81.639
1092.00     71.059   -81.105
1107.89     70.752   -79.971
1124.00     70.539   -78.502
1140.35     70.456   -76.764
1156.94     70.493   -74.922
1173.77     70.638   -73.307
1190.84     70.887   -72.151
1208.16     71.225   -71.533
1225.73     71.615   -71.506
1243.56     72.031   -72.207
1261.65     72.460   -73.562
1280.00     72.868   -75.466
1298.62     73.238   -77.850
1317.51     73.567   -80.658
1336.67     73.853   -83.742
1356.11     74.085   -86.978
1375.84     74.280   -90.307
1395.85     74.441   -93.654
1416.15     74.580   -97.004
1436.75     74.710  -100.345
1457.65     74.841  -103.772
1478.85     74.974  -107.345
1500.36     75.101  -111.120
1522.19     75.221  -115.184
1544.33     75.311  -119.498
1566.79     75.356  -124.119
1589.58     75.344  -128.973
1612.70     75.268  -133.971
1636.16     75.111  -139.032
1659.95     74.870  -144.111
1684.10     74.531  -149.043
1708.60     74.085  -153.682
1733.45     73.526  -157.808
1758.66     72.850  -161.092
1784.24     72.084  -163.038
1810.19     71.312  -163.146
1836.52     70.677  -161.166
1863.24     70.372  -157.637
1890.34     70.491  -154.090
1917.83     70.947  -152.122
1945.73     71.530  -152.266
1974.03     72.059  -154.191
2002.74     72.445  -157.116
2031.87     72.688  -160.211
2061.43     72.845  -162.956
2091.41     73.011  -165.298
2121.83     73.249  -167.571
2152.69     73.552  -170.352
2184.01     73.847  -174.030
2215.77     74.033  -178.484
2248.00     74.052   176.867
2280.70     73.904   172.769
2313.87     73.672   169.847
2347.53     73.504   168.211
2381.68     73.521   167.168
2416.32     73.718   165.597
2451.46     73.961   162.875
2487.12     74.098   159.234
2523.30     74.065   155.553
2560.00     73.910   152.728
2597.24     73.780   151.179
2635.01     73.821   150.299
2673.34     74.051   148.926
2712.23     74.333   146.319
2751.68     74.509   142.714
2791.70     74.504   139.121
2832.31     74.379   136.507
2873.50     74.311   135.107
2915.30     74.445   134.043
2957.70     74.736   131.987
3000.72     74.982   128.519
3044.37     75.012   124.478
3088.65     74.836   121.285
3133.58     74.651   119.879
3179.16     74.705   119.489
3225.40     75.008   118.238
3272.31     75.321   115.276
3319.91     75.448   111.484
3368.20     75.404   108.211
3417.19     75.353   105.968
3466.89     75.407   104.029
3517.32     75.518   101.662
3568.48     75.598    98.926
3620.39     75.639    96.164
3673.05     75.657    93.366
3726.47     75.620    90.580
3780.67     75.532    88.285
3835.67     75.499    86.641
3891.46     75.585    84.900
3948.06     75.694    82.422
4005.49     75.722    79.677
4063.75     75.724    77.167
4122.86     75.749    74.527
4182.82     75.703    71.514
4243.66     75.547    68.984
4305.39     75.441    67.299
4368.01     75.447    65.313
4431.55     75.366    62.640
4496.01     75.137    60.804
4561.40     75.037    60.399
4627.75     75.200    59.349
4695.06     75.323    56.560
4763.35     75.196    53.762
4832.64     75.060    52.549
4902.93     75.194    51.336
4974.24     75.361    47.992
5046.60     75.203    43.822
5120.00     74.853    41.189
5194.47     74.620    39.295
5270.03     74.303    36.651
5346.68     73.723    35.581
5424.45     73.405    37.252
5503.35     73.470    37.391
5583.40     73.240    36.187
5664.61     72.997    38.323
5747.01     73.451    39.630
5830.60     73.684    36.385
5915.41     73.414    35.497
6001.45     73.708    35.973
6088.74     73.892    31.975
6177.30     73.492    30.257
6267.15     73.603    30.444
6358.31     73.628    27.073
6450.80     73.303    25.573
6544.62     73.198    23.740
6639.82     72.552    21.853
6736.40     72.109    25.876
6834.38     72.528    27.857
6933.79     72.738    26.431
7034.64     72.781    25.248
7136.96     72.773    23.518
7240.77     72.494    22.110
7346.09     72.300    23.271
7452.94     72.429    23.018
7561.35     72.244    22.614
7671.33     72.344    23.256
7782.91     72.233    22.194
7896.12     72.242    23.721
8010.97     72.327    22.535
8127.49     72.232    24.773
8245.71     72.811    24.154
8365.65     72.762    22.668
8487.33     73.118    21.731
8610.78     73.019    19.588
8736.03     73.342    18.270
8863.09     73.041    13.921
8992.01     72.852    14.027
9122.80     72.520    11.199
9255.50     72.203    13.091
9390.12     71.965    12.173
9526.70     71.944    15.035
9665.27     71.848    14.006
9805.86     71.941    16.496
9948.49     72.044    15.795
10093.2     72.282    16.377
10240.0     72.355    14.202
10388.9     72.428    13.357
10540.1     72.184    10.438
10693.4     71.883    10.247
10848.9     71.252    10.953
11006.7     71.252    14.334
11166.8     71.240    17.062
11329.2     71.540    18.247
11494.0     71.641    20.230
11661.2     72.112    21.976
11830.8     72.831    21.421
12002.9     72.997    18.263
12177.5     73.255    15.905
12354.6     73.207    14.661
12534.3     72.970    12.579
12716.6     72.934    12.542
12901.6     73.105    13.843
13089.2     73.111    12.647
13279.6     73.138    12.658
13472.8     73.406    13.565
13668.8     73.872    13.648
13867.6     74.267     9.651
14069.3     74.238     6.149
14273.9     74.130     5.221
14481.5     74.083     4.863
14692.2     74.230     3.974
14905.9     74.723     1.768
15122.7     74.954    -2.969
15342.7     74.738    -6.238
15565.8     74.652    -9.770
15792.2     74.292   -14.382
16021.9     73.776   -16.873
16255.0     73.291   -17.543
16491.4     72.958   -16.832
16731.3     72.864   -16.800
16974.7     72.733   -17.266
17221.6     72.847   -16.532
17472.1     73.380   -18.476
17726.2     73.664   -23.838
17984.0     73.611   -29.593
18245.6     73.422   -36.625
18511.0     72.566   -44.408
18780.2     71.178   -48.488
19053.4     69.837   -46.641
19330.5     69.349   -43.003
19611.7     69.115   -41.120
19897.0     69.111   -38.451
20186.4     69.891   -37.467
20480.0     70.870   -45.642
20777.9     70.224   -57.806
21080.1     69.381   -62.696
21386.7     68.634   -67.896
21697.8     67.899   -74.375
22013.4     66.709   -79.566
22333.6     65.610   -82.661
22658.4     64.801   -86.520
22988.0     63.785   -92.647
23322.4     62.190   -98.545
23661.6     60.534   -99.613
24005.8     59.875  -101.297
24355.0     58.643  -111.879
24709.2     56.197  -118.864
25068.6     53.976  -122.471
25433.2     51.612  -127.782
25803.2     48.645  -136.288
26178.5     43.574  -139.156
26559.3     39.415  -128.100
26945.6     36.429  -117.172
27337.5     35.444  -140.116
27735.2     34.161   134.611
28138.6     31.058    92.199
28547.9     37.761    96.774
28963.1     41.376    82.537
29384.4     43.301    69.953
29811.8     43.661    54.815
30245.4     43.031    56.596
30685.3     43.607    53.696
31131.7     44.645    59.538
31584.5     50.039    30.156
32043.9     40.679   -26.037
32510.0     32.272    12.393
32982.8     33.146    52.888
33462.6     32.362    66.442
33949.3     34.160    87.056
34443.1     35.447    94.583
34944.1     36.564    95.817
35452.4     37.925    95.977
35968.0     37.372    68.248
36491.2     32.164   100.231
37022.0     33.837   108.528
37560.5     33.507   114.022
38106.8     33.594   128.398
38661.1     34.440   130.270
39223.4     34.389   136.335
39793.9     34.673   142.913
