Freq[Hz]     dBSPL  Phase[Deg]
5.00000      3.360    22.859
5.07273      3.247    23.820
5.14651      3.043    25.408
5.22137      2.589    28.745
5.29732      2.135    32.081
5.37437      1.681    35.418
5.45254      1.226    38.755
5.53185      0.969    44.364
5.61231      0.919    52.376
5.69394      0.869    60.389
5.77676      0.819    68.401
5.86079      0.782    76.361
5.94604      1.499    81.234
6.03252      2.215    86.108
6.12027      2.932    90.981
6.20929      3.649    95.853
6.29961      4.128    97.335
6.39124      4.555    98.065
6.48420      4.981    98.795
6.57851      5.407    99.524
6.67420      5.299    99.629
6.77128      5.104    99.633
6.86977      4.909    99.636
6.96969      4.625   100.102
7.07107      3.657   104.086
7.17392      2.689   108.070
7.27827      1.722   112.054
7.38413      1.257   122.297
7.49154      1.181   137.377
7.60050      1.106   152.456
7.71105      1.319   165.798
7.82321      2.800   171.513
7.93701      4.281   177.227
8.05245      5.762  -177.059
8.16958      6.446  -177.908
8.28841      7.101  -179.003
8.40896      7.755   179.902
8.53128      7.431   178.113
8.65537      6.980   176.233
8.78126      6.530   174.354
8.90899      4.352  -178.471
9.03857      2.061  -170.703
9.17004      0.256  -160.645
9.30342      2.312  -132.364
9.43874      4.369  -104.084
9.57603      6.637   -87.428
9.71532      9.229   -88.532
9.85663     11.820   -89.636
10.0000     13.282   -94.844
10.1455     14.428  -101.195
10.2930     15.320  -108.180
10.4427     15.502  -116.936
10.5946     15.684  -125.692
10.7487     15.106  -137.285
10.9051     14.376  -149.444
11.0637     13.230  -166.154
11.2246     11.643   172.322
11.3879     10.432   148.013
11.5535     10.597   113.550
11.7216     10.787    79.297
11.8921     12.452    57.454
12.0650     14.117    35.612
12.2405     14.760    21.056
12.4186     15.272     7.441
12.5992     14.272    -3.254
12.7825     12.936   -13.300
12.9684      6.501     2.923
13.1570     -1.121    25.264
13.3484      5.667    63.552
13.5426     14.795   104.430
13.7395     18.511    97.870
13.9394     21.809    89.318
14.1421     23.515    79.501
14.3478     24.870    69.660
14.5565     25.471    59.768
14.7683     25.471    50.298
14.9831     25.008    41.154
15.2010     23.301    34.752
15.4221     20.982    32.494
15.6464     16.907    46.378
15.8740     16.474    73.462
16.1049     18.950   111.089
16.3392     22.175   111.353
16.5768     24.589   106.857
16.8179     25.785    97.473
17.0626     25.564    85.731
17.3107     24.338    72.677
17.5625     21.861    58.092
17.8180     13.697    26.043
18.0771     12.655   -44.387
18.3401     18.578  -140.681
18.6068     22.762  -158.796
18.8775     24.534  -173.640
19.1521     24.440   174.505
19.4306     22.510   167.912
19.7133     17.250  -169.126
20.0000     20.744  -126.324
20.2909     26.249  -105.685
20.5860     30.723  -113.494
20.8855     33.412  -126.953
21.1893     34.803  -142.420
21.4975     35.318  -158.647
21.8102     35.001  -175.302
22.1274     33.754   167.898
22.4492     31.288   151.419
22.7758     26.734   137.056
23.1071     19.291   140.846
23.4432     15.717  -111.657
23.7841     23.427  -114.326
24.1301     25.596  -128.606
24.4811     25.075  -144.070
24.8372     21.977  -156.866
25.1984     14.547  -149.107
25.5649     14.729   -81.645
25.9368     19.599   -67.184
26.3141     21.866   -79.026
26.6968     21.504   -94.846
27.0851     19.063  -109.509
27.4791     14.691  -115.263
27.8788     11.418  -100.366
28.2843     13.182   -96.114
28.6957     15.934  -117.524
29.1131     18.133  -145.021
29.5365     19.374  -168.463
29.9661     19.267   176.717
30.4020     18.018   177.232
30.8442     18.509  -162.734
31.2929     21.620  -150.067
31.7480     24.505  -150.448
32.2098     26.301  -155.078
32.6783     27.251  -158.434
33.1536     28.016  -159.503
33.6359     28.900  -160.146
34.1251     29.775  -162.317
34.6215     30.376  -165.231
35.1250     30.789  -166.747
35.6359     31.467  -166.037
36.1543     32.645  -166.030
36.6802     34.005  -169.051
37.2137     35.128  -174.075
37.7550     35.999  -178.503
38.3041     36.875   178.703
38.8613     37.910   176.038
39.4265     38.939   172.418
40.0000     39.810   168.941
40.5818     40.686   166.644
41.1721     41.788   164.235
41.7710     42.941   160.214
42.3785     43.838   155.458
42.9949     44.612   152.392
43.6203     45.625   150.823
44.2548     46.958   148.088
44.8985     48.198   143.505
45.5515     49.211   139.044
46.2141     50.175   135.790
46.8863     51.256   132.917
47.5683     52.364   129.482
48.2602     53.417   125.747
48.9621     54.440   121.779
49.6743     55.408   117.438
50.3968     56.309   113.063
51.1299     57.229   108.795
51.8736     58.205   104.083
52.6281     59.169    98.751
53.3936     60.098    93.287
54.1702     61.048    87.818
54.9581     62.020    82.065
55.7575     62.965    76.103
56.5685     63.881    70.111
57.3914     64.764    64.049
58.2261     65.595    57.941
59.0730     66.381    51.822
59.9323     67.123    45.589
60.8040     67.819    39.229
61.6884     68.484    32.722
62.5857     69.124    25.956
63.4960     69.727    18.994
64.4196     70.309    12.041
65.3566     70.889     5.122
66.3073     71.456    -1.768
67.2717     71.988    -8.543
68.2502     72.473   -15.116
69.2429     72.918   -21.493
70.2501     73.328   -27.837
71.2719     73.701   -34.271
72.3086     74.053   -40.855
73.3603     74.384   -47.553
74.4274     74.702   -54.137
75.5099     75.013   -60.479
76.6083     75.293   -66.463
77.7226     75.536   -72.045
78.8531     75.730   -77.510
80.0000     75.865   -83.053
81.1636     75.973   -88.878
82.3442     76.077   -95.085
83.5419     76.215  -101.407
84.7570     76.405  -107.567
85.9899     76.605  -113.322
87.2406     76.785  -118.466
88.5096     76.931  -123.368
89.7970     77.013  -128.433
91.1031     77.067  -133.751
92.4282     77.138  -139.369
93.7726     77.249  -144.618
95.1366     77.434  -149.325
96.5204     77.572  -153.319
97.9243     77.677  -156.725
99.3486     77.684  -160.391
100.794     77.642  -164.177
102.260     77.655  -168.787
103.747     77.705  -173.583
105.256     77.823  -178.200
106.787     77.946   177.727
108.340     77.995   173.774
109.916     77.977   170.230
111.515     77.944   166.365
113.137     77.934   162.398
114.783     77.953   158.336
116.452     77.985   154.367
118.146     78.003   150.560
119.865     78.005   146.774
121.608     78.008   142.962
123.377     78.010   139.112
125.171     78.012   135.280
126.992     78.004   131.564
128.839     77.984   127.877
130.713     77.939   124.147
132.615     77.867   120.510
134.543     77.799   116.898
136.500     77.763   113.330
138.486     77.722   110.134
140.500     77.634   106.838
142.544     77.507   103.334
144.617     77.390   100.081
146.721     77.322    97.152
148.855     77.394    94.278
151.020     77.293    90.215
153.217     77.174    87.704
155.445     77.017    84.875
157.706     76.855    81.925
160.000     76.664    79.101
162.327     76.570    76.866
164.688     76.507    74.700
167.084     76.445    72.495
169.514     76.326    68.999
171.980     76.070    65.910
174.481     75.963    64.087
177.019     75.893    62.373
179.594     75.799    60.496
182.206     75.702    58.365
184.856     75.664    56.518
187.545     75.640    54.677
190.273     75.600    52.573
193.041     75.548    50.261
195.849     75.466    48.009
198.697     75.366    45.400
201.587     75.233    42.836
204.520     75.071    40.910
207.494     74.935    39.336
210.512     74.852    37.711
213.574     74.822    35.249
216.681     74.669    33.482
219.833     74.571    32.287
223.030     74.440    30.719
226.274     74.327    29.302
229.565     74.315    28.054
232.905     74.280    26.748
236.292     74.281    25.305
239.729     74.282    23.648
243.216     74.292    21.844
246.754     74.250    20.104
250.343     74.191    18.668
253.984     74.170    16.947
257.678     74.171    15.276
261.426     74.124    13.217
265.229     74.103    10.602
269.087     73.970     8.554
273.001     73.835     6.627
276.972     73.621     4.391
281.000     73.214     4.164
285.088     73.195     4.898
289.234     73.331     4.645
293.441     73.441     2.796
297.709     73.533     1.182
302.040     73.531    -0.570
306.433     73.391    -2.470
310.890     73.426    -3.221
315.412     73.429    -5.282
320.000     73.345    -6.761
324.655     73.240    -8.104
329.377     73.283    -8.445
334.168     73.329   -10.623
339.028     73.291   -11.851
343.959     73.332   -14.017
348.962     73.259   -15.657
354.038     73.117   -17.049
359.188     73.086   -17.960
364.412     73.091   -19.438
369.713     73.096   -21.027
375.090     72.972   -22.171
380.546     72.982   -23.568
386.081     73.010   -24.982
391.697     72.943   -26.519
397.394     72.903   -27.952
403.175     72.874   -29.536
409.039     72.773   -30.386
414.989     72.795   -31.561
421.025     72.861   -33.277
427.149     72.790   -35.404
433.362     72.737   -36.220
439.665     72.849   -38.420
446.060     72.702   -40.454
452.548     72.702   -42.720
459.131     72.318   -45.161
465.809     71.896   -46.755
472.584     71.414   -45.012
479.458     71.561   -43.049
486.432     71.808   -43.901
493.507     71.804   -45.238
500.686     71.768   -46.077
507.968     71.732   -46.813
515.357     71.730   -47.442
522.853     71.740   -48.413
530.458     71.693   -49.386
538.174     71.639   -50.233
546.002     71.592   -50.994
553.943     71.546   -51.784
562.001     71.479   -52.516
570.175     71.448   -53.191
578.469     71.391   -53.944
586.883     71.342   -54.487
595.419     71.305   -54.865
604.080     71.253   -55.365
612.866     71.249   -55.613
621.780     71.255   -56.019
630.824     71.267   -56.330
640.000     71.301   -56.673
649.309     71.355   -57.113
658.753     71.419   -57.660
668.335     71.501   -58.253
678.056     71.589   -58.926
687.919     71.670   -59.652
697.925     71.765   -60.542
708.077     71.857   -61.440
718.376     71.951   -62.371
728.825     72.056   -63.360
739.426     72.170   -64.337
750.181     72.305   -65.338
761.093     72.445   -66.366
772.163     72.606   -67.447
783.394     72.799   -68.691
794.789     73.008   -70.033
806.349     73.231   -71.570
818.078     73.467   -73.351
829.977     73.706   -75.430
842.050     73.944   -77.822
854.298     74.169   -80.497
866.724     74.367   -83.466
879.330     74.534   -86.777
892.120     74.662   -90.358
905.097     74.742   -94.172
918.262     74.760   -98.131
931.618     74.713  -102.254
945.169     74.596  -106.416
958.917     74.408  -110.564
972.864     74.139  -114.490
987.015     73.782  -118.214
1001.37     73.341  -121.584
1015.94     72.826  -124.325
1030.71     72.260  -126.316
1045.71     71.648  -127.334
1060.92     71.041  -127.280
1076.35     70.519  -126.043
1092.00     70.122  -123.778
1107.89     69.917  -120.949
1124.00     69.930  -118.122
1140.35     70.141  -115.743
1156.94     70.485  -114.057
1173.77     70.895  -113.252
1190.84     71.313  -113.221
1208.16     71.724  -113.821
1225.73     72.118  -114.823
1243.56     72.490  -116.127
1261.65     72.848  -117.649
1280.00     73.197  -119.330
1298.62     73.546  -121.194
1317.51     73.900  -123.279
1336.67     74.241  -125.582
1356.11     74.572  -128.136
1375.84     74.884  -130.893
1395.85     75.167  -133.747
1416.15     75.419  -136.609
1436.75     75.648  -139.426
1457.65     75.875  -142.155
1478.85     76.124  -144.805
1500.36     76.406  -147.429
1522.19     76.732  -150.227
1544.33     77.099  -153.390
1566.79     77.482  -157.078
1589.58     77.848  -161.405
1612.70     78.157  -166.296
1636.16     78.374  -171.657
1659.95     78.474  -177.292
1684.10     78.438   177.117
1708.60     78.264   171.931
1733.45     77.979   167.543
1758.66     77.638   164.249
1784.24     77.345   162.237
1810.19     77.204   161.273
1836.52     77.279   160.545
1863.24     77.553   159.136
1890.34     77.919   156.465
1917.83     78.251   152.470
1945.73     78.458   147.541
1974.03     78.490   142.266
2002.74     78.348   137.326
2031.87     78.091   133.303
2061.43     77.823   130.446
2091.41     77.666   128.493
2121.83     77.682   126.699
2152.69     77.829   124.213
2184.01     77.988   120.628
2215.77     78.052   116.180
2248.00     77.958   111.553
2280.70     77.732   107.417
2313.87     77.460   104.174
2347.53     77.258   101.656
2381.68     77.182    99.161
2416.32     77.169    95.924
2451.46     77.093    91.763
2487.12     76.840    87.241
2523.30     76.392    83.323
2560.00     75.855    80.930
2597.24     75.444    80.187
2635.01     75.309    79.861
2673.34     75.389    78.283
2712.23     75.446    74.865
2751.68     75.265    70.358
2791.70     74.794    66.328
2832.31     74.173    64.273
2873.50     73.710    64.374
2915.30     73.631    64.723
2957.70     73.778    63.024
3000.72     73.795    59.005
3044.37     73.463    54.367
3088.65     72.855    51.225
3133.58     72.321    50.374
3179.16     72.146    49.734
3225.40     72.146    46.507
3272.31     71.834    40.620
3319.91     70.925    34.487
3368.20     69.524    31.408
3417.19     68.190    32.879
3466.89     67.391    35.657
3517.32     66.747    35.892
3568.48     65.578    35.085
3620.39     63.816    38.557
3673.05     62.401    49.627
3726.47     62.251    61.713
3780.67     62.420    68.196
3835.67     61.859    73.969
3891.46     61.136    88.269
3948.06     62.322   107.753
4005.49     64.927   116.745
4063.75     67.121   116.387
4122.86     68.610   113.142
4182.82     69.671   109.515
4243.66     70.454   105.766
4305.39     71.022   102.548
4368.01     71.536   100.039
4431.55     72.064    97.197
4496.01     72.441    93.833
4561.40     72.639    91.349
4627.75     72.932    90.079
4695.06     73.391    88.124
4763.35     73.734    84.907
4832.64     73.862    82.354
4902.93     74.107    81.206
4974.24     74.586    78.806
5046.60     74.832    74.348
5120.00     74.703    71.359
5194.47     74.792    70.557
5270.03     75.077    67.928
5346.68     75.010    65.093
5424.45     75.094    64.865
5503.35     75.559    62.413
5583.40     75.581    57.610
5664.61     75.294    55.664
5747.01     75.361    54.999
5830.60     75.458    52.517
5915.41     75.307    50.635
6001.45     75.359    50.455
6088.74     75.633    48.232
6177.30     75.512    45.389
6267.15     75.558    45.008
6358.31     75.826    41.555
6450.80     75.551    37.971
6544.62     75.410    35.956
6639.82     74.938    32.485
6736.40     74.246    34.021
6834.38     74.284    36.352
6933.79     74.342    36.317
7034.64     74.320    36.692
7136.96     74.451    36.905
7240.77     74.413    36.375
7346.09     74.541    37.499
7452.94     74.635    36.619
7561.35     74.835    38.609
7671.33     75.362    36.657
7782.91     75.595    35.285
7896.12     75.863    30.425
8010.97     75.357    28.060
8127.49     75.173    27.056
8245.71     74.714    28.296
8365.65     74.877    30.057
8487.33     74.919    31.551
8610.78     75.439    32.095
8736.03     75.643    31.271
8863.09     76.131    29.575
8992.01     76.049    27.663
9122.80     76.411    26.055
9255.50     76.275    24.713
9390.12     76.571    21.986
9526.70     76.235    21.576
9665.27     76.443    19.836
9805.86     76.295    20.780
9948.49     76.622    19.055
10093.2     76.745    19.413
10240.0     77.123    15.975
10388.9     77.276    13.613
10540.1     77.092     8.259
10693.4     76.628     6.794
10848.9     76.184     6.249
11006.7     75.931     8.819
11166.8     76.117    10.347
11329.2     76.764    10.581
11494.0     76.934     7.732
11661.2     77.134     3.468
11830.8     76.978     1.663
12002.9     76.574    -0.600
12177.5     76.722    -1.720
12354.6     76.565    -2.418
12534.3     76.370    -3.886
12716.6     76.545    -5.809
12901.6     76.487    -7.774
13089.2     76.186   -11.379
13279.6     75.551   -14.308
13472.8     74.871   -12.108
13668.8     74.899    -8.388
13867.6     75.208    -9.487
14069.3     75.294   -12.480
14273.9     74.915   -15.970
14481.5     73.800   -16.114
14692.2     73.217   -11.290
14905.9     73.468    -7.473
15122.7     73.807    -5.233
15342.7     74.092    -6.077
15565.8     73.702    -6.510
15792.2     73.726    -1.972
16021.9     74.432    -0.579
16255.0     75.010    -1.862
16491.4     75.333    -4.031
16731.3     75.588    -7.226
16974.7     75.438   -11.193
17221.6     75.060   -11.693
17472.1     75.110   -10.233
17726.2     75.503    -9.588
17984.0     76.168   -11.779
18245.6     76.369   -16.381
18511.0     76.497   -19.610
18780.2     76.673   -24.115
19053.4     76.582   -29.370
19330.5     76.296   -34.251
19611.7     75.837   -37.690
19897.0     75.402   -39.972
20186.4     74.916   -40.175
20480.0     75.549   -35.505
20777.9     76.727   -47.340
21080.1     76.162   -56.409
21386.7     75.548   -63.950
21697.8     74.843   -70.398
22013.4     73.914   -75.856
22333.6     73.022   -80.053
22658.4     72.207   -83.578
22988.0     71.353   -87.643
23322.4     70.448   -91.212
23661.6     69.502   -94.207
24005.8     68.697   -97.657
24355.0     67.617  -101.766
24709.2     66.500  -104.475
25068.6     65.347  -107.331
25433.2     64.209  -109.203
25803.2     63.097  -111.176
26178.5     62.050  -114.117
26559.3     60.727  -117.242
26945.6     59.304  -119.485
27337.5     57.928  -122.273
27735.2     56.186  -124.091
28138.6     54.825  -124.960
28547.9     53.145  -128.702
28963.1     51.288  -131.698
29384.4     49.340  -138.038
29811.8     45.981  -147.701
30245.4     43.261  -158.030
30685.3     39.615   156.918
31131.7     40.761    98.280
31584.5     50.724    35.521
32043.9     44.793   -43.741
32510.0     40.845   -22.663
32982.8     40.753   -12.952
33462.6     41.178   -13.331
33949.3     40.485   -13.284
34443.1     39.627    -7.362
34944.1     40.156    -3.681
35452.4     39.499    -9.860
35968.0     36.236    -3.272
36491.2     38.169    15.123
37022.0     37.984     4.054
37560.5     36.739     5.811
38106.8     34.815     4.273
38661.1     33.877    14.084
39223.4     32.589    20.272
39793.9     31.895    79.941
