Freq[Hz]     dBSPL  Phase[Deg]
5.00000      2.444    23.021
5.07273      2.328    23.953
5.14651      2.123    25.510
5.22137      1.667    28.814
5.29732      1.212    32.117
5.37437      0.757    35.421
5.45254      0.301    38.724
5.53185      0.043    44.298
5.61231     -0.008    52.274
5.69394     -0.058    60.250
5.77676     -0.108    68.226
5.86079     -0.146    76.149
5.94604      0.571    80.985
6.03252      1.288    85.820
6.12027      2.006    90.655
6.20929      2.723    95.490
6.29961      3.203    96.934
6.39124      3.632    97.625
6.48420      4.060    98.317
6.57851      4.488    99.009
6.67420      4.383    99.077
6.77128      4.190    99.045
6.86977      3.998    99.012
6.96969      3.716    99.442
7.07107      2.752   103.393
7.17392      1.787   107.343
7.27827      0.823   111.294
7.38413      0.363   121.507
7.49154      0.291   136.557
7.60050      0.219   151.607
7.71105      0.437   164.921
7.82321      1.922   170.611
7.93701      3.408   176.301
8.05245      4.893  -178.009
8.16958      5.583  -178.878
8.28841      6.242  -179.992
8.40896      6.902   178.894
8.53128      6.582   177.089
8.65537      6.136   175.195
8.78126      5.690   173.300
8.90899      3.517  -179.536
9.03857      1.231  -171.779
9.17004     -0.570  -161.732
9.30342      1.490  -133.460
9.43874      3.551  -105.188
9.57603      5.823   -88.540
9.71532      8.418   -89.652
9.85663     11.013   -90.764
10.0000     12.477   -95.981
10.1455     13.627  -102.341
10.2930     14.522  -109.336
10.4427     14.705  -118.104
10.5946     14.889  -126.872
10.7487     14.314  -138.481
10.9051     13.586  -150.658
11.0637     12.442  -167.389
11.2246     10.856   171.063
11.3879      9.648   146.726
11.5535      9.815   112.230
11.7216     10.007    77.943
11.8921     11.674    56.057
12.0650     13.342    34.170
12.2405     13.989    19.562
12.4186     14.504     5.893
12.5992     13.509    -4.863
12.7825     12.178   -14.973
12.9684      5.751     1.180
13.1570     -1.864    23.449
13.3484      4.933    61.660
13.5426     14.071   102.460
13.7395     17.801    95.820
13.9394     21.113    87.188
14.1421     22.835    77.293
14.3478     24.209    67.377
14.5565     24.831    57.413
14.7683     24.854    47.879
14.9831     24.414    38.675
15.2010     22.735    32.229
15.4221     20.445    29.933
15.6464     16.401    43.798
15.8740     16.002    70.880
16.1049     18.513   108.517
16.3392     21.774   108.824
16.5768     24.225   104.387
16.8179     25.460    95.086
17.0626     25.277    83.463
17.3107     24.090    70.552
17.5625     21.652    56.137
17.8180     13.525    24.303
18.0771     12.518   -45.884
18.3401     18.474  -141.908
18.6068     22.687  -159.710
18.8775     24.483  -174.210
19.1521     24.409   174.304
19.4306     22.493   168.106
19.7133     17.237  -168.510
20.0000     20.729  -125.274
20.2909     26.222  -104.196
20.5860     30.676  -111.568
20.8855     33.336  -124.602
21.1893     34.686  -139.673
21.4975     35.151  -155.547
21.8102     34.776  -171.898
22.1274     33.465   171.544
22.4492     30.930   155.236
22.7758     26.303   140.966
23.1071     18.787   144.766
23.4432     15.142  -107.810
23.7841     22.785  -110.636
24.1301     24.893  -125.144
24.4811     24.322  -140.896
24.8372     21.183  -154.027
25.1984     13.723  -146.635
25.5649     13.887   -79.557
25.9368     18.751   -65.482
26.3141     21.023   -77.697
26.6968     20.676   -93.863
27.0851     18.261  -108.833
27.4791     13.921  -114.844
27.8788     10.687  -100.141
28.2843     12.495   -96.019
28.6957     15.291  -117.491
29.1131     17.534  -144.983
29.5365     18.815  -168.356
29.9661     18.743   176.950
30.4020     17.521   177.634
30.8442     18.029  -162.131
31.2929     21.147  -149.258
31.7480     24.029  -149.446
32.2098     25.814  -153.917
32.6783     26.746  -157.172
33.1536     27.489  -158.204
33.6359     28.351  -158.880
34.1251     29.209  -161.154
34.6215     29.800  -164.231
35.1250     30.212  -165.946
35.6359     30.904  -165.452
36.1543     32.108  -165.651
36.6802     33.507  -168.840
37.2137     34.679  -173.963
37.7550     35.607  -178.406
38.3041     36.544   178.900
38.8613     37.639   176.446
39.4265     38.720   173.162
40.0000     39.631   170.120
40.5818     40.528   168.335
41.1721     41.628   166.469
41.7710     42.757   162.975
42.3785     43.607   158.670
42.9949     44.316   155.939
43.6203     45.256   154.564
44.2548     46.512   151.861
44.8985     47.683   147.160
45.5515     48.636   142.458
46.2141     49.559   138.873
46.8863     50.617   135.618
47.5683     51.721   131.790
48.2602     52.790   127.692
48.9621     53.843   123.424
49.6743     54.852   118.869
50.3968     55.802   114.382
51.1299     56.770   110.108
51.8736     57.790   105.486
52.6281     58.787   100.316
53.3936     59.737    95.057
54.1702     60.696    89.797
54.9581     61.665    84.222
55.7575     62.597    78.377
56.5685     63.497    72.424
57.3914     64.366    66.321
58.2261     65.193    60.106
59.0730     65.985    53.843
59.9323     66.747    47.471
60.8040     67.477    41.024
61.6884     68.183    34.525
62.5857     68.864    27.874
63.4960     69.497    21.128
64.4196     70.096    14.441
65.3566     70.672     7.771
66.3073     71.222     1.046
67.2717     71.734    -5.693
68.2502     72.208   -12.340
69.2429     72.660   -18.843
70.2501     73.097   -25.267
71.2719     73.510   -31.651
72.3086     73.897   -38.022
73.3603     74.240   -44.400
74.4274     74.538   -50.685
75.5099     74.806   -56.906
76.6083     75.043   -63.039
77.7226     75.273   -69.004
78.8531     75.507   -74.911
80.0000     75.733   -80.699
81.1636     75.957   -86.358
82.3442     76.156   -91.938
83.5419     76.321   -97.358
84.7570     76.458  -102.703
85.9899     76.559  -108.040
87.2406     76.646  -113.254
88.5096     76.750  -118.510
89.7970     76.851  -123.857
91.1031     76.951  -129.097
92.4282     77.036  -134.287
93.7726     77.094  -139.078
95.1366     77.175  -143.708
96.5204     77.223  -148.159
97.9243     77.310  -152.342
99.3486     77.386  -156.659
100.794     77.461  -160.575
102.260     77.561  -164.739
103.747     77.615  -168.882
105.256     77.664  -173.146
106.787     77.713  -177.390
108.340     77.740   178.164
109.916     77.766   174.204
111.515     77.805   170.268
113.137     77.844   166.526
114.783     77.875   162.730
116.452     77.898   158.881
118.146     77.915   155.063
119.865     77.932   151.275
121.608     77.951   147.541
123.377     77.959   143.803
125.171     77.961   140.039
126.992     77.954   136.333
128.839     77.942   132.644
130.713     77.911   128.942
132.615     77.852   125.377
134.543     77.792   121.859
136.500     77.757   118.368
138.486     77.717   115.197
140.500     77.639   111.904
142.544     77.531   108.456
144.617     77.427   105.339
146.721     77.359   102.573
148.855     77.420    99.804
151.020     77.308    95.750
153.217     77.189    93.209
155.445     77.042    90.366
157.706     76.895    87.458
160.000     76.714    84.768
162.327     76.611    82.660
164.688     76.534    80.456
167.084     76.487    78.099
169.514     76.418    74.675
171.980     76.182    71.988
174.481     76.042    70.437
177.019     75.942    68.678
179.594     75.856    66.746
182.206     75.761    64.777
184.856     75.698    62.988
187.545     75.669    61.024
190.273     75.648    58.917
193.041     75.602    56.708
195.849     75.523    54.477
198.697     75.440    51.952
201.587     75.310    49.572
204.520     75.139    47.728
207.494     75.011    46.219
210.512     74.935    44.805
213.574     74.886    42.564
216.681     74.704    40.834
219.833     74.601    39.518
223.030     74.502    38.005
226.274     74.393    36.900
229.565     74.356    35.794
232.905     74.318    34.545
236.292     74.314    33.276
239.729     74.298    31.709
243.216     74.307    29.982
246.754     74.260    28.366
250.343     74.200    27.094
253.984     74.157    25.551
257.678     74.148    23.813
261.426     74.136    21.926
265.229     74.101    19.696
269.087     73.950    17.773
273.001     73.804    16.054
276.972     73.574    13.869
281.000     73.186    13.821
285.088     73.152    14.814
289.234     73.310    14.728
293.441     73.405    13.432
297.709     73.448    11.878
302.040     73.469    10.232
306.433     73.326     8.659
310.890     73.362     8.133
315.412     73.368     6.350
320.000     73.292     5.180
324.655     73.180     4.134
329.377     73.236     4.035
334.168     73.284     2.211
339.028     73.258     1.251
343.959     73.302    -0.604
348.962     73.248    -2.083
354.038     73.137    -3.179
359.188     73.135    -3.760
364.412     73.154    -4.902
369.713     73.179    -6.314
375.090     73.100    -7.237
380.546     73.128    -8.308
386.081     73.189    -9.617
391.697     73.149   -10.922
397.394     73.145   -12.246
403.175     73.136   -13.654
409.039     73.070   -14.565
414.989     73.133   -15.509
421.025     73.215   -17.201
427.149     73.160   -19.219
433.362     73.128   -20.018
439.665     73.238   -22.179
446.060     73.111   -24.200
452.548     73.086   -26.549
459.131     72.753   -29.024
465.809     72.322   -30.400
472.584     71.816   -28.601
479.458     71.952   -26.478
486.432     72.167   -27.293
493.507     72.140   -28.572
500.686     72.081   -29.217
507.968     72.016   -29.796
515.357     71.985   -30.256
522.853     71.967   -30.927
530.458     71.886   -31.560
538.174     71.804   -32.106
546.002     71.722   -32.458
553.943     71.660   -32.832
562.001     71.590   -33.079
570.175     71.535   -33.152
578.469     71.474   -33.360
586.883     71.424   -33.315
595.419     71.401   -33.246
604.080     71.382   -33.130
612.866     71.399   -32.885
621.780     71.440   -32.835
630.824     71.499   -32.705
640.000     71.575   -32.668
649.309     71.672   -32.757
658.753     71.775   -32.976
668.335     71.887   -33.295
678.056     72.008   -33.754
687.919     72.124   -34.268
697.925     72.243   -34.909
708.077     72.360   -35.589
718.376     72.478   -36.274
728.825     72.600   -37.019
739.426     72.732   -37.731
750.181     72.878   -38.446
761.093     73.041   -39.226
772.163     73.224   -40.066
783.394     73.437   -40.975
794.789     73.663   -42.089
806.349     73.913   -43.391
818.078     74.173   -44.954
829.977     74.436   -46.773
842.050     74.692   -48.949
854.298     74.938   -51.449
866.724     75.156   -54.200
879.330     75.342   -57.320
892.120     75.491   -60.671
905.097     75.588   -64.243
918.262     75.624   -68.027
931.618     75.602   -71.917
945.169     75.514   -75.852
958.917     75.353   -79.744
972.864     75.118   -83.499
987.015     74.808   -87.047
1001.37     74.410   -90.282
1015.94     73.951   -93.029
1030.71     73.438   -95.121
1045.71     72.884   -96.455
1060.92     72.318   -96.868
1076.35     71.802   -96.306
1092.00     71.368   -94.806
1107.89     71.069   -92.627
1124.00     70.941   -90.165
1140.35     70.994   -87.813
1156.94     71.199   -85.775
1173.77     71.491   -84.340
1190.84     71.840   -83.606
1208.16     72.219   -83.456
1225.73     72.609   -83.777
1243.56     73.002   -84.510
1261.65     73.394   -85.601
1280.00     73.787   -86.975
1298.62     74.180   -88.659
1317.51     74.575   -90.685
1336.67     74.963   -93.039
1356.11     75.329   -95.726
1375.84     75.675   -98.718
1395.85     75.991  -101.949
1416.15     76.268  -105.295
1436.75     76.507  -108.725
1457.65     76.719  -112.196
1478.85     76.921  -115.672
1500.36     77.117  -119.127
1522.19     77.318  -122.647
1544.33     77.528  -126.340
1566.79     77.738  -130.337
1589.58     77.932  -134.696
1612.70     78.081  -139.431
1636.16     78.156  -144.515
1659.95     78.127  -149.821
1684.10     77.976  -155.101
1708.60     77.685  -159.999
1733.45     77.268  -164.083
1758.66     76.768  -167.003
1784.24     76.293  -168.326
1810.19     75.971  -168.093
1836.52     75.919  -167.119
1863.24     76.163  -166.592
1890.34     76.592  -167.484
1917.83     77.052  -170.005
1945.73     77.413  -173.801
1974.03     77.616  -178.254
2002.74     77.652   177.333
2031.87     77.575   173.540
2061.43     77.470   170.647
2091.41     77.431   168.428
2121.83     77.512   166.316
2152.69     77.684   163.698
2184.01     77.854   160.270
2215.77     77.938   156.257
2248.00     77.895   152.201
2280.70     77.754   148.711
2313.87     77.607   146.057
2347.53     77.552   143.991
2381.68     77.625   141.769
2416.32     77.763   138.657
2451.46     77.829   134.567
2487.12     77.718   130.064
2523.30     77.398   126.120
2560.00     76.969   123.705
2597.24     76.643   123.111
2635.01     76.606   123.250
2673.34     76.839   122.333
2712.23     77.105   119.458
2751.68     77.169   115.232
2791.70     76.935   111.145
2832.31     76.520   108.744
2873.50     76.207   108.479
2915.30     76.236   108.820
2957.70     76.501   107.559
3000.72     76.671   104.269
3044.37     76.533   100.551
3088.65     76.165    98.494
3133.58     75.919    98.848
3179.16     76.081    99.663
3225.40     76.484    98.323
3272.31     76.736    94.836
3319.91     76.673    91.234
3368.20     76.476    89.331
3417.19     76.478    88.865
3466.89     76.763    87.623
3517.32     77.059    84.381
3568.48     77.115    80.239
3620.39     76.970    76.950
3673.05     76.886    74.981
3726.47     77.016    72.769
3780.67     77.166    68.849
3835.67     77.069    63.989
3891.46     76.740    60.071
3948.06     76.467    57.468
4005.49     76.331    54.257
4063.75     76.018    49.676
4122.86     75.344    46.066
4182.82     74.664    45.230
4243.66     74.308    44.755
4305.39     73.886    42.720
4368.01     73.145    42.053
4431.55     72.628    44.285
4496.01     72.503    45.341
4561.40     72.161    44.896
4627.75     71.699    46.614
4695.06     71.575    48.757
4763.35     71.349    49.510
4832.64     70.984    52.994
4902.93     71.325    57.934
4974.24     72.010    57.989
5046.60     72.125    55.453
5120.00     71.871    55.784
5194.47     72.058    58.208
5270.03     72.507    57.318
5346.68     72.417    55.076
5424.45     72.240    56.535
5503.35     72.577    57.063
5583.40     72.510    55.258
5664.61     72.295    57.565
5747.01     72.744    59.378
5830.60     72.939    58.243
5915.41     73.007    59.471
6001.45     73.486    60.052
6088.74     73.807    57.983
6177.30     73.730    56.690
6267.15     73.762    58.006
6358.31     74.027    58.408
6450.80     74.195    59.985
6544.62     75.012    61.300
6639.82     75.671    57.299
6736.40     75.789    54.018
6834.38     75.825    51.438
6933.79     75.718    51.007
7034.64     76.059    51.000
7136.96     76.278    48.785
7240.77     76.406    48.015
7346.09     76.829    46.099
7452.94     76.832    41.803
7561.35     76.570    41.159
7671.33     76.661    40.460
7782.91     76.747    40.366
7896.12     76.981    37.618
8010.97     76.658    37.199
8127.49     76.944    37.219
8245.71     76.895    36.751
8365.65     77.270    36.378
8487.33     77.376    35.427
8610.78     77.836    33.298
8736.03     77.729    30.730
8863.09     77.939    28.500
8992.01     77.601    26.724
9122.80     77.690    25.771
9255.50     77.403    26.710
9390.12     77.920    26.032
9526.70     77.835    25.228
9665.27     78.158    23.293
9805.86     78.118    23.168
9948.49     78.470    20.341
10093.2     78.458    19.089
10240.0     78.497    15.377
10388.9     78.339    14.211
10540.1     78.021    11.909
10693.4     77.785    12.865
10848.9     77.648    14.101
11006.7     77.975    16.629
11166.8     78.463    15.357
11329.2     78.916    12.995
11494.0     78.758    10.432
11661.2     78.937     8.401
11830.8     79.077     8.137
12002.9     79.048     5.065
12177.5     79.278     2.479
12354.6     79.201     1.264
12534.3     79.045    -1.685
12716.6     79.073    -4.021
12901.6     78.924    -5.148
13089.2     78.686    -6.944
13279.6     78.460    -8.333
13472.8     78.448    -6.829
13668.8     78.806    -7.445
13867.6     78.965   -11.576
14069.3     78.861   -15.399
14273.9     78.575   -18.219
14481.5     77.965   -19.923
14692.2     77.537   -20.128
14905.9     77.534   -20.236
15122.7     77.464   -21.707
15342.7     77.149   -22.831
15565.8     76.846   -24.424
15792.2     76.299   -26.450
16021.9     75.583   -25.495
16255.0     75.088   -21.807
16491.4     75.059   -17.374
16731.3     75.353   -15.303
16974.7     75.474   -15.551
17221.6     75.413   -14.384
17472.1     75.651   -12.052
17726.2     76.097   -11.068
17984.0     76.680   -11.710
18245.6     77.030   -14.474
18511.0     77.322   -17.014
18780.2     77.484   -20.843
19053.4     77.479   -24.442
19330.5     77.412   -28.404
19611.7     77.056   -33.056
19897.0     76.293   -37.234
20186.4     74.206   -35.965
20480.0     75.008    -7.721
20777.9     79.035   -21.404
21080.1     78.841   -36.026
21386.7     78.278   -44.485
21697.8     77.727   -50.354
22013.4     77.062   -55.390
22333.6     76.386   -59.166
22658.4     75.709   -62.069
22988.0     75.088   -64.515
23322.4     74.449   -67.052
23661.6     73.728   -68.675
24005.8     73.130   -69.517
24355.0     72.591   -70.699
24709.2     72.127   -71.865
25068.6     71.611   -73.889
25433.2     70.972   -75.628
25803.2     70.321   -76.435
26178.5     69.780   -77.316
26559.3     69.244   -78.558
26945.6     68.568   -79.747
27337.5     67.991   -80.162
27735.2     67.339   -80.859
28138.6     66.902   -80.498
28547.9     66.467   -82.200
28963.1     65.888   -83.737
29384.4     65.259   -85.958
29811.8     64.483   -87.742
30245.4     63.584   -89.167
30685.3     62.609   -90.356
31131.7     61.169   -91.820
31584.5     59.501   -71.712
32043.9     62.444   -82.653
32510.0     60.662   -89.510
32982.8     59.515   -90.473
33462.6     58.485   -91.765
33949.3     57.247   -91.600
34443.1     56.227   -90.759
34944.1     55.028   -89.829
35452.4     53.603   -85.283
35968.0     54.432   -74.095
36491.2     53.725   -91.015
37022.0     51.721   -88.527
37560.5     50.459   -85.253
38106.8     49.376   -83.302
38661.1     48.025   -79.692
39223.4     46.771   -74.745
39793.9     45.931   -68.523
