Freq[Hz]     dBSPL  Phase[Deg]
5.00000      1.772    29.380
5.07273      1.649    30.336
5.14651      1.436    31.915
5.22137      0.974    35.234
5.29732      0.512    38.554
5.37437      0.050    41.873
5.45254     -0.412    45.192
5.53185     -0.676    50.778
5.61231     -0.731    58.764
5.69394     -0.786    66.749
5.77676     -0.842    74.734
5.86079     -0.884    82.667
5.94604     -0.169    87.507
6.03252      0.545    92.347
6.12027      1.260    97.188
6.20929      1.974   102.028
6.29961      2.454   103.476
6.39124      2.882   104.173
6.48420      3.310   104.869
6.57851      3.737   105.565
6.67420      3.634   105.641
6.77128      3.444   105.617
6.86977      3.255   105.592
6.96969      2.976   106.031
7.07107      2.016   109.998
7.17392      1.057   113.965
7.27827      0.098   117.932
7.38413     -0.356   128.167
7.49154     -0.420   143.246
7.60050     -0.483   158.324
7.71105     -0.258   171.670
7.82321      1.238   177.405
7.93701      2.734  -176.860
8.05245      4.230  -171.126
8.16958      4.932  -171.931
8.28841      5.603  -172.980
8.40896      6.275  -174.030
8.53128      5.969  -175.750
8.65537      5.537  -177.557
8.78126      5.105  -179.364
8.90899      2.946  -172.090
9.03857      0.674  -164.221
9.17004     -1.112  -154.059
9.30342      0.963  -125.649
9.43874      3.039   -97.239
9.57603      5.325   -80.444
9.71532      7.934   -81.392
9.85663     10.543   -82.340
10.0000     12.021   -87.372
10.1455     13.183   -93.543
10.2930     14.090  -100.342
10.4427     14.285  -108.896
10.5946     14.481  -117.450
10.7487     13.914  -128.828
10.9051     13.195  -140.769
11.0637     12.057  -157.255
11.2246     10.476  -178.550
11.3879      9.272   157.371
11.5535      9.441   123.142
11.7216      9.634    89.124
11.8921     11.298    67.515
12.0650     12.963    45.906
12.2405     13.603    31.578
12.4186     14.111    18.189
12.5992     13.104     7.710
12.7825     11.762    -2.122
12.9684      5.318    14.299
13.1570     -2.313    36.835
13.3484      4.464    75.298
13.5426     13.581   116.348
13.7395     17.286   109.935
13.9394     20.573   101.526
14.1421     22.268    91.828
14.3478     23.613    82.097
14.5565     24.206    72.296
14.7683     24.200    62.903
14.9831     23.730    53.825
15.2010     22.020    47.470
15.4221     19.701    45.253
15.6464     15.628    59.163
15.8740     15.202    86.269
16.1049     17.687   123.913
16.3392     20.927   124.192
16.5768     23.359   119.714
16.8179     24.578   110.351
17.0626     24.385    98.644
17.3107     23.190    85.637
17.5625     20.748    71.114
17.8180     12.625    39.160
18.0771     11.628   -31.152
18.3401     17.598  -127.301
18.6068     21.832  -145.226
18.8775     23.658  -159.839
19.1521     23.617  -171.425
19.4306     21.742  -177.708
19.7133     16.534  -154.378
20.0000     20.079  -111.163
20.2909     25.632   -90.070
20.5860     30.151   -97.384
20.8855     32.879  -110.314
21.1893     34.302  -125.215
21.4975     34.843  -140.856
21.8102     34.546  -156.911
22.1274     33.310  -173.110
22.4492     30.849   171.009
22.7758     26.293   157.231
23.1071     18.844   161.585
23.4432     15.259   -90.380
23.7841     22.954   -92.540
24.1301     25.105  -106.343
24.4811     24.570  -121.358
24.8372     21.455  -133.729
25.1984     14.009  -125.565
25.5649     14.178   -57.711
25.9368     19.038   -42.864
26.3141     21.297   -54.319
26.6968     20.928   -69.742
27.0851     18.483   -83.992
27.4791     14.106   -89.312
27.8788     10.828   -73.953
28.2843     12.583   -69.213
28.6957     15.323   -90.110
29.1131     17.502  -117.076
29.5365     18.714  -139.977
29.9661     18.570  -154.260
30.4020     17.275  -153.232
30.8442     17.707  -132.736
31.2929     20.751  -119.680
31.7480     23.563  -119.762
32.2098     25.282  -124.203
32.6783     26.159  -127.504
33.1536     26.858  -128.636
33.6359     27.689  -129.446
34.1251     28.531  -131.869
34.6215     29.121  -135.080
35.1250     29.544  -136.897
35.6359     30.259  -136.443
36.1543     31.494  -136.611
36.6802     32.928  -139.688
37.2137     34.137  -144.612
37.7550     35.097  -148.780
38.3041     36.062  -151.123
38.8613     37.175  -153.174
39.4265     38.263  -156.018
40.0000     39.169  -158.611
40.5818     40.047  -159.963
41.1721     41.118  -161.440
41.7710     42.209  -164.609
42.3785     43.015  -168.679
42.9949     43.680  -171.265
43.6203     44.581  -172.579
44.2548     45.807  -175.294
44.8985     46.959   179.953
45.5515     47.906   175.191
46.2141     48.833   171.568
46.8863     49.904   168.319
47.5683     51.025   164.558
48.2602     52.108   160.585
48.9621     53.172   156.485
49.6743     54.184   152.119
50.3968     55.128   147.812
51.1299     56.084   143.678
51.8736     57.088   139.135
52.6281     58.071   133.976
53.3936     59.014   128.668
54.1702     59.976   123.329
54.9581     60.960   117.683
55.7575     61.919   111.816
56.5685     62.849   105.919
57.3914     63.747    99.958
58.2261     64.593    93.955
59.0730     65.390    87.938
59.9323     66.144    81.794
60.8040     66.850    75.503
61.6884     67.527    69.047
62.5857     68.183    62.325
63.4960     68.804    55.418
64.4196     69.406    48.545
65.3566     70.004    41.735
66.3073     70.582    34.970
67.2717     71.120    28.311
68.2502     71.603    21.820
69.2429     72.043    15.472
70.2501     72.450     9.101
71.2719     72.824     2.601
72.3086     73.183    -4.062
73.3603     73.523   -10.835
74.4274     73.849   -17.487
75.5099     74.167   -23.912
76.6083     74.453   -30.026
77.7226     74.704   -35.800
78.8531     74.920   -41.505
80.0000     75.091   -47.286
81.1636     75.253   -53.271
82.3442     75.419   -59.492
83.5419     75.612   -65.661
84.7570     75.837   -71.546
85.9899     76.046   -76.989
87.2406     76.212   -81.850
88.5096     76.323   -86.528
89.7970     76.349   -91.455
91.1031     76.325   -96.779
92.4282     76.302  -102.651
93.7726     76.323  -108.476
95.1366     76.449  -114.061
96.5204     76.583  -119.073
97.9243     76.740  -123.435
99.3486     76.841  -127.809
100.794     76.907  -131.943
102.260     77.005  -136.563
103.747     77.091  -141.219
105.256     77.197  -145.797
106.787     77.286  -150.090
108.340     77.308  -154.517
109.916     77.289  -158.675
111.515     77.287  -163.139
113.137     77.323  -167.573
114.783     77.386  -171.960
116.452     77.443  -176.196
118.146     77.471   179.677
119.865     77.483   175.473
121.608     77.504   171.189
123.377     77.534   166.902
125.171     77.564   162.698
126.992     77.571   158.614
128.839     77.560   154.493
130.713     77.531   150.267
132.615     77.485   146.153
134.543     77.440   142.113
136.500     77.418   138.114
138.486     77.387   134.478
140.500     77.317   130.672
142.544     77.212   126.657
144.617     77.108   122.976
146.721     77.043   119.587
148.855     77.118   116.129
151.020     77.027   111.444
153.217     76.925   108.325
155.445     76.787   104.901
157.706     76.647   101.381
160.000     76.475    98.002
162.327     76.383    95.203
164.688     76.319    92.374
167.084     76.283    89.352
169.514     76.222    85.188
171.980     75.997    81.734
174.481     75.868    79.496
177.019     75.772    77.037
179.594     75.691    74.228
182.206     75.635    71.303
184.856     75.621    68.818
187.545     75.601    66.324
190.273     75.567    63.404
193.041     75.540    60.257
195.849     75.491    57.297
198.697     75.404    54.017
201.587     75.270    50.619
204.520     75.131    47.756
207.494     75.037    45.408
210.512     74.980    43.131
213.574     74.944    39.999
216.681     74.770    37.394
219.833     74.681    35.113
223.030     74.595    32.622
226.274     74.488    30.477
229.565     74.464    28.230
232.905     74.450    25.901
236.292     74.467    23.584
239.729     74.473    20.950
243.216     74.487    18.177
246.754     74.443    15.381
250.343     74.400    12.889
253.984     74.358    10.144
257.678     74.360     7.085
261.426     74.369     3.944
265.229     74.327     0.451
269.087     74.177    -2.890
273.001     74.042    -5.926
276.972     73.805    -9.406
281.000     73.405   -10.886
285.088     73.354   -11.393
289.234     73.486   -13.015
293.441     73.550   -15.943
297.709     73.580   -19.139
302.040     73.575   -22.242
306.433     73.374   -25.419
310.890     73.343   -27.692
315.412     73.285   -31.292
320.000     73.134   -34.113
324.655     72.914   -36.946
329.377     72.878   -38.895
334.168     72.817   -42.500
339.028     72.648   -45.269
343.959     72.545   -48.793
348.962     72.298   -51.984
354.038     72.006   -54.730
359.188     71.780   -56.990
364.412     71.587   -59.686
369.713     71.357   -62.386
375.090     71.003   -64.538
380.546     70.747   -66.724
386.081     70.516   -68.889
391.697     70.172   -70.833
397.394     69.857   -72.542
403.175     69.565   -74.095
409.039     69.228   -74.744
414.989     69.028   -75.195
421.025     68.886   -76.146
427.149     68.652   -77.331
433.362     68.510   -77.086
439.665     68.548   -78.013
446.060     68.401   -78.932
452.548     68.438   -80.208
459.131     68.198   -81.730
465.809     67.930   -82.395
472.584     67.612   -80.130
479.458     67.966   -77.801
486.432     68.435   -78.857
493.507     68.671   -80.513
500.686     68.878   -82.000
507.968     69.080   -83.721
515.357     69.301   -85.634
522.853     69.519   -88.079
530.458     69.647   -90.909
538.174     69.766   -93.955
546.002     69.867   -96.921
553.943     69.917  -100.085
562.001     69.914  -103.497
570.175     69.908  -107.042
578.469     69.825  -110.649
586.883     69.697  -114.100
595.419     69.530  -117.390
604.080     69.306  -120.645
612.866     69.063  -123.572
621.780     68.792  -126.465
630.824     68.472  -129.000
640.000     68.155  -131.165
649.309     67.852  -133.062
658.753     67.535  -134.489
668.335     67.231  -135.647
678.056     66.964  -136.561
687.919     66.762  -137.134
697.925     66.617  -137.606
708.077     66.529  -137.886
718.376     66.528  -138.327
728.825     66.578  -138.931
739.426     66.695  -139.809
750.181     66.844  -140.991
761.093     67.022  -142.726
772.163     67.221  -144.739
783.394     67.408  -147.173
794.789     67.590  -150.001
806.349     67.738  -153.099
818.078     67.860  -156.460
829.977     67.957  -160.039
842.050     67.992  -163.798
854.298     68.017  -167.788
866.724     67.985  -171.775
879.330     67.926  -175.947
892.120     67.828   179.840
905.097     67.679   175.591
918.262     67.495   171.222
931.618     67.267   166.840
945.169     67.006   162.394
958.917     66.691   158.025
972.864     66.314   153.670
987.015     65.865   149.417
1001.37     65.328   145.171
1015.94     64.712   141.212
1030.71     63.990   137.715
1045.71     63.146   134.734
1060.92     62.189   132.571
1076.35     61.135   131.660
1092.00     60.042   132.624
1107.89     58.972   135.868
1124.00     58.126   141.394
1140.35     57.683   148.608
1156.94     57.750   155.577
1173.77     58.191   161.146
1190.84     58.802   164.457
1208.16     59.422   165.918
1225.73     59.965   166.226
1243.56     60.374   165.788
1261.65     60.663   165.131
1280.00     60.904   164.602
1298.62     61.132   164.651
1317.51     61.414   165.069
1336.67     61.775   165.889
1356.11     62.260   166.548
1375.84     62.873   166.790
1395.85     63.549   166.364
1416.15     64.258   165.028
1436.75     64.973   162.794
1457.65     65.673   159.848
1478.85     66.334   156.337
1500.36     66.946   152.254
1522.19     67.507   147.668
1544.33     68.015   142.607
1566.79     68.453   137.195
1589.58     68.805   131.426
1612.70     69.069   125.382
1636.16     69.242   119.250
1659.95     69.309   113.115
1684.10     69.294   107.108
1708.60     69.204   101.479
1733.45     69.064    96.218
1758.66     68.898    91.324
1784.24     68.736    86.547
1810.19     68.578    81.691
1836.52     68.402    76.576
1863.24     68.146    71.084
1890.34     67.747    65.349
1917.83     67.150    59.802
1945.73     66.334    55.286
1974.03     65.332    52.952
2002.74     64.353    53.789
2031.87     63.801    57.773
2061.43     63.976    61.960
2091.41     64.685    62.922
2121.83     65.482    59.398
2152.69     66.023    52.590
2184.01     66.143    43.736
2215.77     65.775    34.146
2248.00     64.885    25.094
2280.70     63.520    18.141
2313.87     61.796    15.213
2347.53     60.168    17.842
2381.68     59.279    24.585
2416.32     59.327    30.053
2451.46     59.748    31.134
2487.12     60.068    28.394
2523.30     60.115    23.348
2560.00     59.903    16.769
2597.24     59.317     8.968
2635.01     58.258     0.130
2673.34     56.500    -9.313
2712.23     53.891   -17.353
2751.68     50.173   -20.791
2791.70     45.391   -14.189
2832.31     39.253    11.373
2873.50     36.638    87.083
2915.30     44.517   126.742
2957.70     49.815   125.923
3000.72     52.475   118.805
3044.37     53.588   113.637
3088.65     54.253   115.227
3133.58     55.703   120.155
3179.16     57.798   119.877
3225.40     59.482   113.626
3272.31     60.372   106.250
3319.91     60.797   101.268
3368.20     61.325    98.705
3417.19     62.098    95.356
3466.89     62.720    89.932
3517.32     62.941    84.598
3568.48     63.033    81.667
3620.39     63.442    79.761
3673.05     64.059    75.779
3726.47     64.390    69.841
3780.67     64.299    64.359
3835.67     64.092    61.315
3891.46     64.140    60.032
3948.06     64.529    58.074
4005.49     64.991    53.641
4063.75     65.186    46.947
4122.86     64.883    40.379
4182.82     64.315    36.684
4243.66     63.986    35.155
4305.39     63.821    32.680
4368.01     63.468    30.577
4431.55     63.358    30.730
4496.01     63.716    28.230
4561.40     63.607    22.214
4627.75     62.947    19.330
4695.06     62.880    18.881
4763.35     62.922    12.695
4832.64     61.656     6.196
4902.93     60.190    10.998
4974.24     60.477    16.659
5046.60     60.573    14.425
5120.00     60.137    15.092
5194.47     60.226    16.136
5270.03     60.004    15.267
5346.68     59.886    18.307
5424.45     60.497    18.692
5503.35     60.701    15.238
5583.40     60.669    12.451
5664.61     60.448     8.651
5747.01     59.762     6.691
5830.60     59.012     8.411
5915.41     58.793    15.623
6001.45     60.118    18.807
6088.74     60.713    10.953
6177.30     60.030     8.333
6267.15     60.294     9.445
6358.31     60.353     4.866
6450.80     59.936     4.069
6544.62     60.161     4.265
6639.82     60.453    -0.042
6736.40     59.881    -6.725
6834.38     58.783    -6.885
6933.79     58.192    -3.867
7034.64     58.247     1.798
7136.96     59.100    -0.268
7240.77     58.633    -3.284
7346.09     58.908    -2.054
7452.94     59.039    -6.912
7561.35     58.827   -11.407
7671.33     57.851   -17.338
7782.91     56.426   -14.602
7896.12     56.203    -8.260
8010.97     56.379    -8.681
8127.49     55.726    -9.134
8245.71     55.194    -4.056
8365.65     56.022    -0.445
8487.33     55.841    -6.115
8610.78     55.259    -3.979
8736.03     54.783    -0.973
8863.09     55.251     1.332
8992.01     54.821     3.058
9122.80     55.354     5.005
9255.50     55.309     6.058
9390.12     55.524     7.911
9526.70     56.273    10.839
9665.27     57.269     5.725
9805.86     57.000     0.520
9948.49     57.276    -2.517
10093.2     56.852    -8.159
10240.0     55.978   -11.833
10388.9     55.323    -6.685
10540.1     55.334    -8.027
10693.4     55.226    -5.483
10848.9     55.329    -5.547
11006.7     55.631    -6.911
11166.8     55.389   -12.326
11329.2     54.913   -12.544
11494.0     54.282   -13.625
11661.2     54.166   -13.322
11830.8     53.974   -12.008
12002.9     53.373   -19.895
12177.5     52.036   -19.497
12354.6     50.223    -8.017
12534.3     50.452     0.379
12716.6     50.792     9.417
12901.6     52.475    18.946
13089.2     53.704    11.249
13279.6     53.882     9.807
13472.8     54.929     5.747
13668.8     54.583    -4.792
13867.6     52.962   -11.310
14069.3     51.539    -3.611
14273.9     51.638     5.539
14481.5     52.277     6.835
14692.2     52.362     2.250
14905.9     51.920     4.439
15122.7     51.641     5.890
15342.7     51.457    11.583
15565.8     51.963    15.979
15792.2     52.967    15.597
16021.9     53.683    11.694
16255.0     53.867     5.905
16491.4     53.387    -0.341
16731.3     52.770    -2.944
16974.7     52.012    -8.050
17221.6     50.348    -8.495
17472.1     49.278    -2.669
17726.2     49.009     6.677
17984.0     49.691     8.036
18245.6     49.632     9.130
18511.0     50.328     8.976
18780.2     50.574     0.737
19053.4     49.375    -5.793
19330.5     48.615    -5.329
19611.7     47.965    -6.199
19897.0     47.480    -6.925
20186.4     47.268    -5.758
20480.0     48.203   -12.142
20777.9     46.877   -29.937
21080.1     44.440   -36.271
21386.7     42.152   -35.424
21697.8     40.823   -32.323
22013.4     39.895   -34.268
22333.6     38.049   -35.081
22658.4     37.564   -31.965
22988.0     36.090   -36.652
23322.4     35.040   -37.523
23661.6     33.655   -52.883
24005.8     27.738   -55.564
24355.0     23.793   -15.455
24709.2     28.141     3.549
25068.6     30.178    -9.273
25433.2     29.286   -17.870
25803.2     27.521   -20.891
26178.5     28.067   -16.979
26559.3     27.803   -20.615
26945.6     26.619   -37.082
27337.5     23.217   -29.500
27735.2     22.699   174.467
28138.6     22.884  -155.306
28547.9     20.806    94.294
28963.1     20.498  -147.442
29384.4     20.284    56.967
29811.8     21.895   -96.069
30245.4     17.886   -77.911
30685.3     17.675  -172.368
31131.7     16.234   150.499
31584.5     17.829   -87.278
32043.9     18.104  -162.036
32510.0     17.026  -168.328
32982.8     17.249    -0.977
33462.6     17.189    42.478
33949.3     16.136    91.016
34443.1     18.068    23.528
34944.1     18.661   148.620
35452.4     18.290    37.366
35968.0     18.468   -89.522
36491.2     17.951   178.291
37022.0     18.647   -66.980
37560.5     18.690   139.773
38106.8     19.005    36.807
38661.1     17.892   171.342
39223.4     18.067   -74.217
39793.9     19.820   107.139
