Freq[Hz]     dBSPL  Phase[Deg]
5.00000      2.256    22.656
5.07273      2.142    23.577
5.14651      1.939    25.124
5.22137      1.485    28.417
5.29732      1.032    31.710
5.37437      0.579    35.003
5.45254      0.126    38.296
5.53185     -0.130    43.860
5.61231     -0.177    51.827
5.69394     -0.225    59.794
5.77676     -0.272    67.761
5.86079     -0.307    75.675
5.94604      0.414    80.504
6.03252      1.135    85.332
6.12027      1.856    90.160
6.20929      2.577    94.988
6.29961      3.062    96.428
6.39124      3.495    97.117
6.48420      3.927    97.806
6.57851      4.360    98.495
6.67420      4.259    98.565
6.77128      4.072    98.535
6.86977      3.885    98.504
6.96969      3.609    98.937
7.07107      2.650   102.898
7.17392      1.692   106.858
7.27827      0.734   110.818
7.38413      0.279   121.044
7.49154      0.214   136.112
7.60050      0.149   151.180
7.71105      0.373   164.514
7.82321      1.865   170.232
7.93701      3.356   175.949
8.05245      4.848  -178.334
8.16958      5.544  -179.165
8.28841      6.210   179.759
8.40896      6.876   178.683
8.53128      6.563   176.927
8.65537      6.123   175.082
8.78126      5.683   173.238
8.90899      3.515  -179.537
9.03857      1.234  -171.718
9.17004     -0.562  -161.609
9.30342      1.503  -133.263
9.43874      3.568  -104.918
9.57603      5.843   -88.192
9.71532      8.441   -89.219
9.85663     11.038   -90.246
10.0000     12.503   -95.370
10.1455     13.653  -101.636
10.2930     14.547  -108.534
10.4427     14.729  -117.199
10.5946     14.912  -125.865
10.7487     14.331  -137.368
10.9051     13.598  -149.436
11.0637     12.446  -166.059
11.2246     10.853   172.502
11.3879      9.635   148.274
11.5535      9.790   113.883
11.7216      9.971    79.703
11.8921     11.622    57.915
12.0650     13.273    36.127
12.2405     13.902    21.606
12.4186     14.398     8.021
12.5992     13.381    -2.666
12.7825     12.028   -12.710
12.9684      5.575     3.488
13.1570     -2.066    25.797
13.3484      4.704    64.024
13.5426     13.814   104.834
13.7395     17.514    98.171
13.9394     20.797    89.511
14.1421     22.489    79.555
14.3478     23.833    69.564
14.5565     24.426    59.500
14.7683     24.422    49.844
14.9831     23.955    40.502
15.2010     22.252    33.886
15.4221     19.940    31.410
15.6464     15.877    45.069
15.8740     15.462    71.930
16.1049     17.959   109.334
16.3392     21.212   109.391
16.5768     23.659   104.699
16.8179     24.894    95.135
17.0626     24.717    83.248
17.3107     23.540    70.076
17.5625     21.115    55.402
17.8180     13.009    23.324
18.0771     12.027   -47.094
18.3401     18.010  -143.334
18.6068     22.256  -161.324
18.8775     24.090  -175.983
19.1521     24.055   172.400
19.4306     22.182   166.101
19.7133     16.971  -170.571
20.0000     20.508  -127.349
20.2909     26.048  -106.246
20.5860     30.548  -113.551
20.8855     33.252  -126.478
21.1893     34.642  -141.392
21.4975     35.143  -157.070
21.8102     34.800  -173.193
22.1274     33.514   170.505
22.4492     30.998   154.475
22.7758     26.382   140.495
23.1071     18.870   144.590
23.4432     15.219  -107.699
23.7841     22.850  -110.255
24.1301     24.940  -124.523
24.4811     24.346  -140.070
24.8372     21.178  -153.037
25.1984     13.687  -145.528
25.5649     13.818   -78.381
25.9368     18.650   -64.283
26.3141     20.894   -76.519
26.6968     20.521   -92.743
27.0851     18.084  -107.802
27.4791     13.728  -113.924
27.8788     10.483   -99.345
28.2843     12.286   -95.348
28.6957     15.083  -116.939
29.1131     17.332  -144.534
29.5365     18.622  -167.987
29.9661     18.562   177.266
30.4020     17.354   177.928
30.8442     17.875  -161.823
31.2929     21.005  -148.907
31.7480     23.896  -149.028
32.2098     25.686  -153.413
32.6783     26.617  -156.575
33.1536     27.355  -157.519
33.6359     28.207  -158.120
34.1251     29.052  -160.344
34.6215     29.628  -163.402
35.1250     30.024  -165.132
35.6359     30.701  -164.690
36.1543     31.892  -164.971
36.6802     33.283  -168.266
37.2137     34.455  -173.509
37.7550     35.385  -178.076
38.3041     36.332   179.117
38.8613     37.442   176.569
39.4265     38.541   173.223
40.0000     39.472   170.153
40.5818     40.390   168.381
41.1721     41.510   166.566
41.7710     42.655   163.154
42.3785     43.516   158.955
42.9949     44.230   156.341
43.6203     45.172   155.080
44.2548     46.424   152.477
44.8985     47.587   147.852
45.5515     48.531   143.199
46.2141     49.444   139.636
46.8863     50.493   136.377
47.5683     51.593   132.527
48.2602     52.659   128.396
48.9621     53.713   124.093
49.6743     54.725   119.508
50.3968     55.680   115.002
51.1299     56.656   110.723
51.8736     57.682   106.109
52.6281     58.686   100.960
53.3936     59.642    95.731
54.1702     60.606    90.507
54.9581     61.578    84.971
55.7575     62.514    79.166
56.5685     63.416    73.255
57.3914     64.287    67.195
58.2261     65.114    61.022
59.0730     65.905    54.799
59.9323     66.667    48.463
60.8040     67.393    42.041
61.6884     68.098    35.555
62.5857     68.777    28.905
63.4960     69.413    22.153
64.4196     70.015    15.464
65.3566     70.598     8.807
66.3073     71.156     2.123
67.2717     71.674    -4.545
68.2502     72.150   -11.102
69.2429     72.597   -17.514
70.2501     73.023   -23.876
71.2719     73.422   -30.250
72.3086     73.798   -36.671
73.3603     74.138   -43.142
74.4274     74.444   -49.523
75.5099     74.732   -55.791
76.6083     74.992   -61.883
77.7226     75.239   -67.712
78.8531     75.475   -73.428
80.0000     75.687   -79.049
81.1636     75.883   -84.639
82.3442     76.053   -90.294
83.5419     76.205   -95.910
84.7570     76.355  -101.485
85.9899     76.490  -106.974
87.2406     76.622  -112.172
88.5096     76.767  -117.233
89.7970     76.886  -122.276
91.1031     76.978  -127.218
92.4282     77.037  -132.210
93.7726     77.065  -136.936
95.1366     77.125  -141.597
96.5204     77.162  -146.108
97.9243     77.247  -150.335
99.3486     77.324  -154.677
100.794     77.400  -158.615
102.260     77.506  -162.799
103.747     77.569  -166.937
105.256     77.628  -171.145
106.787     77.681  -175.289
108.340     77.703  -179.639
109.916     77.718   176.442
111.515     77.749   172.486
113.137     77.789   168.708
114.783     77.826   164.911
116.452     77.856   161.104
118.146     77.873   157.337
119.865     77.890   153.573
121.608     77.911   149.851
123.377     77.926   146.151
125.171     77.931   142.462
126.992     77.919   138.830
128.839     77.899   135.166
130.713     77.864   131.438
132.615     77.812   127.848
134.543     77.761   124.356
136.500     77.734   120.935
138.486     77.695   117.837
140.500     77.615   114.605
142.544     77.504   111.196
144.617     77.400   108.099
146.721     77.334   105.354
148.855     77.400   102.633
151.020     77.289    98.647
153.217     77.167    96.158
155.445     77.017    93.330
157.706     76.874    90.435
160.000     76.700    87.801
162.327     76.597    85.765
164.688     76.519    83.603
167.084     76.475    81.291
169.514     76.407    77.953
171.980     76.163    75.329
174.481     76.017    73.766
177.019     75.924    71.996
179.594     75.848    70.123
182.206     75.756    68.247
184.856     75.693    66.532
187.545     75.662    64.647
190.273     75.634    62.586
193.041     75.589    60.367
195.849     75.522    58.194
198.697     75.440    55.819
201.587     75.297    53.505
204.520     75.123    51.653
207.494     75.000    50.184
210.512     74.925    48.831
213.574     74.878    46.645
216.681     74.696    44.981
219.833     74.594    43.705
223.030     74.502    42.262
226.274     74.392    41.291
229.565     74.344    40.232
232.905     74.310    38.976
236.292     74.316    37.795
239.729     74.298    36.356
243.216     74.300    34.707
246.754     74.249    33.118
250.343     74.196    31.874
253.984     74.159    30.439
257.678     74.148    28.793
261.426     74.140    26.982
265.229     74.103    24.874
269.087     73.947    23.002
273.001     73.808    21.359
276.972     73.577    19.297
281.000     73.187    19.324
285.088     73.154    20.421
289.234     73.307    20.414
293.441     73.407    19.175
297.709     73.456    17.766
302.040     73.467    16.246
306.433     73.318    14.714
310.890     73.351    14.270
315.412     73.356    12.434
320.000     73.313    11.374
324.655     73.191    10.562
329.377     73.246    10.447
334.168     73.306     8.774
339.028     73.282     7.902
343.959     73.331     6.227
348.962     73.265     4.803
354.038     73.166     3.773
359.188     73.163     3.271
364.412     73.198     2.245
369.713     73.218     0.990
375.090     73.137     0.144
380.546     73.170    -0.864
386.081     73.232    -2.051
391.697     73.192    -3.266
397.394     73.183    -4.503
403.175     73.177    -5.890
409.039     73.116    -6.662
414.989     73.175    -7.535
421.025     73.254    -9.121
427.149     73.199   -11.106
433.362     73.173   -11.809
439.665     73.280   -13.834
446.060     73.151   -15.768
452.548     73.127   -17.976
459.131     72.784   -20.316
465.809     72.345   -21.547
472.584     71.829   -19.709
479.458     71.965   -17.457
486.432     72.178   -18.124
493.507     72.143   -19.266
500.686     72.075   -19.789
507.968     72.009   -20.209
515.357     71.975   -20.504
522.853     71.949   -20.991
530.458     71.858   -21.434
538.174     71.771   -21.871
546.002     71.698   -21.992
553.943     71.632   -22.119
562.001     71.546   -22.132
570.175     71.496   -22.085
578.469     71.437   -22.061
586.883     71.394   -21.820
595.419     71.382   -21.495
604.080     71.364   -21.159
612.866     71.389   -20.726
621.780     71.439   -20.431
630.824     71.498   -20.164
640.000     71.591   -19.900
649.309     71.690   -19.836
658.753     71.802   -19.909
668.335     71.925   -20.052
678.056     72.050   -20.364
687.919     72.178   -20.707
697.925     72.298   -21.204
708.077     72.419   -21.734
718.376     72.543   -22.284
728.825     72.671   -22.865
739.426     72.802   -23.421
750.181     72.949   -24.026
761.093     73.119   -24.650
772.163     73.300   -25.302
783.394     73.505   -26.073
794.789     73.734   -27.042
806.349     73.979   -28.167
818.078     74.233   -29.534
829.977     74.493   -31.192
842.050     74.741   -33.151
854.298     74.981   -35.475
866.724     75.195   -38.025
879.330     75.383   -40.913
892.120     75.524   -44.061
905.097     75.621   -47.407
918.262     75.658   -50.973
931.618     75.643   -54.644
945.169     75.559   -58.336
958.917     75.406   -62.024
972.864     75.186   -65.579
987.015     74.889   -68.908
1001.37     74.510   -71.972
1015.94     74.070   -74.594
1030.71     73.585   -76.616
1045.71     73.053   -77.896
1060.92     72.509   -78.422
1076.35     72.004   -77.994
1092.00     71.572   -76.760
1107.89     71.253   -74.834
1124.00     71.079   -72.629
1140.35     71.080   -70.410
1156.94     71.213   -68.445
1173.77     71.448   -66.957
1190.84     71.743   -66.072
1208.16     72.072   -65.743
1225.73     72.426   -65.923
1243.56     72.789   -66.450
1261.65     73.158   -67.425
1280.00     73.536   -68.649
1298.62     73.906   -70.245
1317.51     74.276   -72.238
1336.67     74.647   -74.634
1356.11     74.994   -77.376
1375.84     75.318   -80.472
1395.85     75.602   -83.879
1416.15     75.845   -87.495
1436.75     76.041   -91.231
1457.65     76.201   -95.066
1478.85     76.333   -98.947
1500.36     76.445  -102.805
1522.19     76.543  -106.704
1544.33     76.633  -110.746
1566.79     76.718  -115.017
1589.58     76.782  -119.574
1612.70     76.797  -124.442
1636.16     76.743  -129.675
1659.95     76.582  -135.133
1684.10     76.287  -140.649
1708.60     75.833  -145.887
1733.45     75.210  -150.398
1758.66     74.436  -153.671
1784.24     73.600  -154.963
1810.19     72.860  -153.770
1836.52     72.429  -150.587
1863.24     72.465  -147.002
1890.34     72.901  -144.882
1917.83     73.501  -145.063
1945.73     74.052  -147.331
1974.03     74.447  -150.880
2002.74     74.655  -154.928
2031.87     74.713  -158.746
2061.43     74.688  -161.921
2091.41     74.663  -164.397
2121.83     74.704  -166.511
2152.69     74.821  -168.748
2184.01     74.969  -171.459
2215.77     75.087  -174.656
2248.00     75.125  -177.990
2280.70     75.096   178.945
2313.87     75.054   176.391
2347.53     75.070   174.259
2381.68     75.180   172.039
2416.32     75.344   169.177
2451.46     75.464   165.495
2487.12     75.443   161.363
2523.30     75.242   157.581
2560.00     74.931   155.010
2597.24     74.682   154.080
2635.01     74.673   153.946
2673.34     74.914   153.051
2712.23     75.206   150.409
2751.68     75.320   146.477
2791.70     75.149   142.665
2832.31     74.806   140.521
2873.50     74.571   140.526
2915.30     74.675   141.132
2957.70     75.015   140.236
3000.72     75.274   137.512
3044.37     75.276   134.467
3088.65     75.123   132.872
3133.58     75.109   133.024
3179.16     75.416   133.194
3225.40     75.875   131.611
3272.31     76.202   128.531
3319.91     76.317   125.481
3368.20     76.370   123.605
3417.19     76.581   122.476
3466.89     76.980   120.565
3517.32     77.367   117.051
3568.48     77.539   112.771
3620.39     77.508   109.271
3673.05     77.505   107.275
3726.47     77.734   105.501
3780.67     78.061   102.216
3835.67     78.210    97.819
3891.46     78.164    94.087
3948.06     78.191    91.390
4005.49     78.363    87.937
4063.75     78.389    83.071
4122.86     78.129    78.769
4182.82     77.867    76.220
4243.66     77.780    73.581
4305.39     77.574    69.978
4368.01     77.148    67.666
4431.55     76.897    67.151
4496.01     76.863    65.745
4561.40     76.667    63.814
4627.75     76.500    63.474
4695.06     76.638    62.429
4763.35     76.601    59.203
4832.64     76.194    57.490
4902.93     76.048    58.494
4974.24     76.299    57.862
5046.60     76.344    55.058
5120.00     76.119    53.504
5194.47     76.126    53.465
5270.03     76.337    51.500
5346.68     76.193    48.404
5424.45     75.968    47.955
5503.35     76.168    46.813
5583.40     76.042    43.147
5664.61     75.679    42.813
5747.01     75.909    42.130
5830.60     75.779    37.621
5915.41     75.151    36.473
6001.45     74.982    37.386
6088.74     74.880    36.376
6177.30     74.633    35.809
6267.15     74.457    35.894
6358.31     74.335    35.010
6450.80     73.819    34.344
6544.62     73.395    37.682
6639.82     73.357    41.200
6736.40     73.759    45.996
6834.38     74.689    45.120
6933.79     74.781    41.806
7034.64     74.872    41.249
7136.96     74.901    39.180
7240.77     74.687    39.002
7346.09     74.763    40.267
7452.94     74.983    39.749
7561.35     75.092    39.346
7671.33     75.163    37.403
7782.91     74.914    38.218
7896.12     75.115    37.963
8010.97     74.903    39.490
8127.49     75.313    39.880
8245.71     75.253    41.195
8365.65     75.760    41.165
8487.33     75.769    42.603
8610.78     76.539    42.915
8736.03     76.908    41.477
8863.09     77.421    38.902
8992.01     77.484    37.093
9122.80     77.979    34.879
9255.50     78.000    32.099
9390.12     78.307    28.017
9526.70     77.784    25.995
9665.27     77.874    24.618
9805.86     77.651    25.082
9948.49     77.794    23.379
10093.2     77.729    24.220
10240.0     77.931    22.707
10388.9     78.035    23.003
10540.1     78.192    20.927
10693.4     78.300    20.164
10848.9     78.351    19.046
11006.7     78.532    18.749
11166.8     78.741    16.531
11329.2     79.027    14.763
11494.0     78.883    12.445
11661.2     78.988     9.426
11830.8     78.879     9.233
12002.9     78.789     7.573
12177.5     79.051     5.404
12354.6     78.911     4.298
12534.3     78.641     2.029
12716.6     78.606     1.745
12901.6     78.729     2.475
13089.2     78.856     1.013
13279.6     78.971    -1.535
13472.8     78.998    -2.940
13668.8     79.064    -4.146
13867.6     79.139    -7.397
14069.3     79.084   -10.547
14273.9     78.909   -13.361
14481.5     78.364   -15.621
14692.2     77.924   -15.876
14905.9     77.895   -15.958
15122.7     77.878   -16.955
15342.7     77.659   -18.040
15565.8     77.456   -19.251
15792.2     77.152   -20.861
16021.9     76.843   -21.139
16255.0     76.625   -21.337
16491.4     76.224   -21.759
16731.3     75.760   -20.100
16974.7     75.592   -17.212
17221.6     75.741   -14.401
17472.1     76.190   -13.019
17726.2     76.592   -13.736
17984.0     76.897   -15.005
18245.6     77.270   -16.973
18511.0     77.556   -20.913
18780.2     77.588   -26.081
19053.4     77.196   -31.244
19330.5     76.633   -34.414
19611.7     76.080   -37.341
19897.0     75.107   -41.353
20186.4     72.321   -40.885
20480.0     72.562     0.891
20777.9     78.048   -12.965
21080.1     78.013   -29.031
21386.7     77.499   -37.872
21697.8     76.927   -43.668
22013.4     76.301   -47.815
22333.6     75.707   -51.195
22658.4     75.055   -53.935
22988.0     74.420   -55.720
23322.4     73.798   -57.146
23661.6     73.220   -57.837
24005.8     72.761   -58.262
24355.0     72.322   -59.130
24709.2     71.920   -59.929
25068.6     71.448   -61.035
25433.2     71.034   -61.928
25803.2     70.544   -62.606
26178.5     70.148   -63.444
26559.3     69.735   -64.204
26945.6     69.271   -65.185
27337.5     68.928   -65.706
27735.2     68.599   -66.973
28138.6     68.154   -69.041
28547.9     67.697   -70.448
28963.1     67.182   -72.111
29384.4     66.691   -74.274
29811.8     66.037   -76.862
30245.4     65.237   -78.877
30685.3     64.317   -80.804
31131.7     62.995   -82.868
31584.5     61.300   -66.702
32043.9     63.695   -74.619
32510.0     62.213   -80.993
32982.8     61.094   -82.252
33462.6     60.154   -82.628
33949.3     59.069   -83.404
34443.1     58.018   -83.038
34944.1     56.813   -82.114
35452.4     55.176   -77.843
35968.0     56.373   -58.859
36491.2     56.696   -82.500
37022.0     54.465   -83.192
37560.5     53.009   -81.315
38106.8     51.638   -79.289
38661.1     50.412   -75.953
39223.4     49.261   -71.913
39793.9     48.107   -67.328
