Freq[Hz]     dBSPL  Phase[Deg]
5.00000      1.132    23.209
5.07273      1.019    24.173
5.14651      0.817    25.764
5.22137      0.363    29.103
5.29732     -0.090    32.442
5.37437     -0.543    35.782
5.45254     -0.996    39.121
5.53185     -1.253    44.732
5.61231     -1.301    52.747
5.69394     -1.350    60.761
5.77676     -1.399    68.776
5.86079     -1.435    76.737
5.94604     -0.717    81.613
6.03252      0.001    86.488
6.12027      0.719    91.363
6.20929      1.438    96.238
6.29961      1.919    97.722
6.39124      2.347    98.454
6.48420      2.776    99.186
6.57851      3.204    99.918
6.67420      3.099   100.027
6.77128      2.906   100.034
6.86977      2.714   100.041
6.96969      2.432   100.510
7.07107      1.467   104.500
7.17392      0.503   108.489
7.27827     -0.462   112.479
7.38413     -0.923   122.729
7.49154     -0.994   137.817
7.60050     -1.066   152.904
7.71105     -0.850   166.256
7.82321      0.635   171.982
7.93701      2.120   177.708
8.05245      3.606  -176.565
8.16958      4.294  -177.398
8.28841      4.954  -178.476
8.40896      5.613  -179.554
8.53128      5.293   178.677
8.65537      4.847   176.820
8.78126      4.401   174.962
8.90899      2.229  -177.835
9.03857     -0.057  -170.039
9.17004     -1.858  -159.953
9.30342      0.203  -131.639
9.43874      2.264  -103.325
9.57603      4.537   -86.633
9.71532      7.132   -87.698
9.85663      9.727   -88.763
10.0000     11.192   -93.927
10.1455     12.342  -100.234
10.2930     13.238  -107.174
10.4427     13.422  -115.882
10.5946     13.606  -124.590
10.7487     13.030  -136.134
10.9051     12.302  -148.243
11.0637     11.157  -164.904
11.2246      9.570   173.622
11.3879      8.360   149.361
11.5535      8.524   114.944
11.7216      8.713    80.737
11.8921     10.375    58.935
12.0650     12.038    37.132
12.2405     12.679    22.609
12.4186     13.188     9.024
12.5992     12.184    -1.649
12.7825     10.844   -11.676
12.9684      4.405     4.555
13.1570     -3.221    26.900
13.3484      3.563    65.180
13.5426     12.687   106.047
13.7395     16.401    99.459
13.9394     19.697    90.877
14.1421     21.402    81.015
14.3478     22.757    71.125
14.5565     23.360    61.173
14.7683     23.364    51.636
14.9831     22.905    42.419
15.2010     21.207    35.937
15.4221     18.898    33.597
15.6464     14.836    47.396
15.8740     14.420    74.398
16.1049     16.915   111.943
16.3392     20.164   112.136
16.5768     22.605   107.577
16.8179     23.830    98.140
17.0626     23.643    86.368
17.3107     22.453    73.303
17.5625     20.015    58.726
17.8180     11.893    26.726
18.0771     10.895   -43.626
18.3401     16.862  -139.813
18.6068     21.092  -157.770
18.8775     22.908  -172.414
19.1521     22.857   175.970
19.4306     20.968   169.658
19.7133     15.744  -167.047
20.0000     19.268  -123.872
20.2909     24.797  -102.828
20.5860     29.289  -110.203
20.8855     31.986  -123.208
21.1893     33.373  -138.210
21.4975     33.874  -153.979
21.8102     33.534  -170.194
22.1274     32.254   173.414
22.4492     29.746   157.297
22.7758     25.141   143.239
23.1071     17.643   147.265
23.4432     14.009  -105.081
23.7841     21.657  -107.679
24.1301     23.767  -121.972
24.4811     23.193  -137.528
24.8372     20.047  -150.486
25.1984     12.577  -142.951
25.5649     12.731   -75.761
25.9368     17.585   -61.604
26.3141     19.849   -73.766
26.6968     19.496   -89.903
27.0851     17.077  -104.862
27.4791     12.739  -110.873
27.8788      9.511   -96.173
28.2843     11.329   -92.047
28.6957     14.139  -113.501
29.1131     16.398  -140.953
29.5365     17.698  -164.259
29.9661     17.645  -178.856
30.4020     16.442  -178.041
30.8442     16.966  -157.642
31.2929     20.096  -144.581
31.7480     22.985  -144.565
32.2098     24.771  -148.826
32.6783     25.696  -151.880
33.1536     26.426  -152.737
33.6359     27.271  -153.271
34.1251     28.109  -155.454
34.6215     28.679  -158.494
35.1250     29.073  -160.224
35.6359     29.750  -159.799
36.1543     30.947  -160.104
36.6802     32.347  -163.422
37.2137     33.532  -168.680
37.7550     34.479  -173.244
38.3041     35.446  -176.023
38.8613     36.576  -178.516
39.4265     37.696   178.224
40.0000     38.647   175.267
40.5818     39.580   173.627
41.1721     40.712   171.958
41.7710     41.865   168.690
42.3785     42.730   164.624
42.9949     43.447   162.121
43.6203     44.388   160.944
44.2548     45.642   158.395
44.8985     46.809   153.799
45.5515     47.762   149.165
46.2141     48.688   145.621
46.8863     49.756   142.398
47.5683     50.876   138.615
48.2602     51.965   134.591
48.9621     53.039   130.433
49.6743     54.067   126.023
50.3968     55.030   121.708
51.1299     56.007   117.611
51.8736     57.028   113.149
52.6281     58.023   108.102
53.3936     58.969   102.916
54.1702     59.926    97.678
54.9581     60.900    92.085
55.7575     61.846    86.209
56.5685     62.769    80.240
57.3914     63.668    74.163
58.2261     64.528    68.030
59.0730     65.352    61.911
59.9323     66.141    55.732
60.8040     66.889    49.500
61.6884     67.605    43.212
62.5857     68.290    36.742
63.4960     68.923    30.132
64.4196     69.522    23.538
65.3566     70.102    16.926
66.3073     70.661    10.247
67.2717     71.186     3.558
68.2502     71.674    -3.028
69.2429     72.140    -9.461
70.2501     72.591   -15.821
71.2719     73.017   -22.154
72.3086     73.420   -28.491
73.3603     73.785   -34.837
74.4274     74.110   -41.070
75.5099     74.408   -47.192
76.6083     74.672   -53.173
77.7226     74.921   -58.948
78.8531     75.162   -64.669
80.0000     75.387   -70.331
81.1636     75.606   -75.963
82.3442     75.810   -81.613
83.5419     75.997   -87.155
84.7570     76.178   -92.587
85.9899     76.337   -97.898
87.2406     76.482  -102.924
88.5096     76.634  -107.849
89.7970     76.760  -112.798
91.1031     76.861  -117.674
92.4282     76.931  -122.606
93.7726     76.973  -127.264
95.1366     77.044  -131.852
96.5204     77.092  -136.296
97.9243     77.186  -140.476
99.3486     77.274  -144.790
100.794     77.364  -148.710
102.260     77.488  -152.873
103.747     77.571  -156.972
105.256     77.652  -161.113
106.787     77.726  -165.159
108.340     77.763  -169.388
109.916     77.786  -173.189
111.515     77.820  -177.068
113.137     77.864   179.174
114.783     77.912   175.363
116.452     77.961   171.561
118.146     78.001   167.862
119.865     78.031   164.218
121.608     78.056   160.597
123.377     78.069   156.915
125.171     78.083   153.169
126.992     78.095   149.494
128.839     78.108   145.895
130.713     78.096   142.346
132.615     78.046   138.946
134.543     77.986   135.542
136.500     77.954   132.102
138.486     77.925   128.963
140.500     77.863   125.742
142.544     77.768   122.416
144.617     77.673   119.405
146.721     77.611   116.719
148.855     77.681   114.037
151.020     77.578   110.085
153.217     77.466   107.642
155.445     77.326   104.883
157.706     77.188   102.071
160.000     77.014    99.514
162.327     76.910    97.521
164.688     76.835    95.378
167.084     76.797    93.092
169.514     76.738    89.809
171.980     76.501    87.281
174.481     76.354    85.821
177.019     76.254    84.111
179.594     76.175    82.246
182.206     76.091    80.400
184.856     76.034    78.798
187.545     75.999    77.034
190.273     75.960    75.049
193.041     75.906    72.858
195.849     75.839    70.716
198.697     75.758    68.422
201.587     75.609    66.222
204.520     75.425    64.444
207.494     75.297    63.027
210.512     75.218    61.787
213.574     75.158    59.711
216.681     74.967    58.115
219.833     74.856    56.974
223.030     74.739    55.659
226.274     74.612    54.691
229.565     74.564    53.722
232.905     74.512    52.650
236.292     74.493    51.536
239.729     74.466    50.174
243.216     74.452    48.675
246.754     74.383    47.209
250.343     74.311    46.146
253.984     74.245    44.855
257.678     74.215    43.301
261.426     74.189    41.688
265.229     74.126    39.771
269.087     73.946    38.089
273.001     73.778    36.646
276.972     73.522    34.775
281.000     73.104    35.065
285.088     73.033    36.403
289.234     73.157    36.631
293.441     73.220    35.675
297.709     73.236    34.459
302.040     73.230    33.245
306.433     73.045    32.073
310.890     73.053    31.966
315.412     73.024    30.606
320.000     72.934    29.908
324.655     72.783    29.448
329.377     72.808    29.746
334.168     72.838    28.514
339.028     72.782    28.101
343.959     72.809    26.863
348.962     72.717    25.944
354.038     72.593    25.335
359.188     72.575    25.281
364.412     72.602    24.751
369.713     72.605    24.025
375.090     72.514    23.608
380.546     72.537    23.135
386.081     72.583    22.373
391.697     72.534    21.585
397.394     72.521    20.756
403.175     72.509    19.841
409.039     72.432    19.433
414.989     72.483    19.002
421.025     72.544    17.841
427.149     72.456    16.262
433.362     72.408    15.890
439.665     72.483    14.288
446.060     72.317    12.777
452.548     72.254    10.949
459.131     71.867     9.084
465.809     71.384     8.345
472.584     70.813    10.757
479.458     70.899    13.596
486.432     71.043    13.628
493.507     70.944    13.142
500.686     70.821    13.444
507.968     70.691    13.859
515.357     70.605    14.485
522.853     70.531    15.002
530.458     70.415    15.569
538.174     70.306    16.302
546.002     70.228    17.316
553.943     70.174    18.327
562.001     70.123    19.410
570.175     70.122    20.530
578.469     70.133    21.532
586.883     70.166    22.595
595.419     70.223    23.568
604.080     70.287    24.373
612.866     70.383    25.210
621.780     70.479    25.772
630.824     70.569    26.180
640.000     70.666    26.462
649.309     70.758    26.568
658.753     70.833    26.658
668.335     70.885    26.643
678.056     70.921    26.527
687.919     70.941    26.448
697.925     70.942    26.392
708.077     70.936    26.404
718.376     70.920    26.646
728.825     70.900    26.981
739.426     70.896    27.486
750.181     70.910    28.140
761.093     70.965    28.910
772.163     71.046    29.688
783.394     71.181    30.371
794.789     71.355    30.990
806.349     71.559    31.352
818.078     71.784    31.440
829.977     72.017    31.149
842.050     72.252    30.529
854.298     72.469    29.560
866.724     72.655    28.259
879.330     72.813    26.639
892.120     72.933    24.800
905.097     73.003    22.842
918.262     73.008    20.683
931.618     72.971    18.460
945.169     72.875    16.249
958.917     72.721    14.056
972.864     72.520    11.967
987.015     72.265    10.033
1001.37     71.954     8.271
1015.94     71.601     6.803
1030.71     71.213     5.600
1045.71     70.789     4.755
1060.92     70.332     4.251
1076.35     69.873     4.156
1092.00     69.404     4.512
1107.89     68.941     5.216
1124.00     68.515     6.298
1140.35     68.145     7.722
1156.94     67.831     9.474
1173.77     67.579    11.303
1190.84     67.381    13.155
1208.16     67.234    14.667
1225.73     67.115    15.964
1243.56     67.027    16.866
1261.65     66.915    17.532
1280.00     66.785    17.939
1298.62     66.621    18.030
1317.51     66.433    17.933
1336.67     66.201    17.632
1356.11     65.942    16.914
1375.84     65.640    15.658
1395.85     65.248    13.690
1416.15     64.736    10.913
1436.75     64.002     7.238
1457.65     62.915     2.389
1478.85     61.295    -4.081
1500.36     58.846   -12.780
1522.19     54.817   -27.382
1544.33     48.427   -71.258
1566.79     50.461  -153.948
1589.58     56.782   176.121
1612.70     60.573   164.361
1636.16     63.079   157.001
1659.95     64.894   151.800
1684.10     66.344   148.285
1708.60     67.619   145.924
1733.45     68.835   144.178
1758.66     70.056   142.274
1784.24     71.251   139.555
1810.19     72.380   135.851
1836.52     73.376   131.250
1863.24     74.188   125.982
1890.34     74.787   120.393
1917.83     75.181   114.899
1945.73     75.380   109.912
1974.03     75.424   105.723
2002.74     75.390   102.604
2031.87     75.349   100.580
2061.43     75.381    99.341
2091.41     75.515    98.331
2121.83     75.732    96.973
2152.69     75.961    95.061
2184.01     76.134    92.591
2215.77     76.202    89.916
2248.00     76.156    87.481
2280.70     76.035    85.678
2313.87     75.911    84.682
2347.53     75.867    84.285
2381.68     75.943    83.869
2416.32     76.094    82.804
2451.46     76.218    80.805
2487.12     76.204    78.167
2523.30     75.999    75.656
2560.00     75.632    74.184
2597.24     75.254    74.387
2635.01     75.063    75.881
2673.34     75.147    77.260
2712.23     75.370    77.163
2751.68     75.499    75.562
2791.70     75.390    73.579
2832.31     75.097    72.714
2873.50     74.842    73.632
2915.30     74.859    75.321
2957.70     75.116    75.844
3000.72     75.346    74.548
3044.37     75.363    72.517
3088.65     75.210    71.289
3133.58     75.120    71.210
3179.16     75.232    70.927
3225.40     75.381    69.013
3272.31     75.292    65.946
3319.91     74.886    63.707
3368.20     74.423    63.916
3417.19     74.297    65.656
3466.89     74.518    65.939
3517.32     74.689    63.657
3568.48     74.522    60.545
3620.39     74.110    58.889
3673.05     73.809    59.085
3726.47     73.797    58.991
3780.67     73.812    56.814
3835.67     73.531    53.620
3891.46     72.967    51.764
3948.06     72.474    51.898
4005.49     72.216    51.950
4063.75     71.899    50.836
4122.86     71.392    50.582
4182.82     71.074    51.931
4243.66     71.034    51.684
4305.39     70.712    49.220
4368.01     69.954    48.720
4431.55     69.458    51.513
4496.01     69.410    52.771
4561.40     69.139    52.179
4627.75     68.755    53.208
4695.06     68.639    53.829
4763.35     68.259    52.566
4832.64     67.525    54.390
4902.93     67.377    59.135
4974.24     67.653    60.587
5046.60     67.656    60.205
5120.00     67.593    60.344
5194.47     67.526    59.797
5270.03     67.238    59.077
5346.68     66.772    60.490
5424.45     66.713    64.984
5503.35     67.361    66.493
5583.40     67.559    63.296
5664.61     67.247    63.280
5747.01     67.487    64.667
5830.60     67.618    63.172
5915.41     67.659    63.782
6001.45     68.092    62.471
6088.74     68.020    58.836
6177.30     67.632    58.372
6267.15     67.430    60.201
6358.31     67.591    63.359
6450.80     68.163    65.550
6544.62     68.966    65.743
6639.82     69.713    63.061
6736.40     70.242    59.740
6834.38     70.638    54.881
6933.79     70.533    51.332
7034.64     70.781    50.332
7136.96     71.033    46.539
7240.77     71.071    44.642
7346.09     71.448    41.552
7452.94     71.317    36.905
7561.35     71.097    35.950
7671.33     71.153    34.821
7782.91     71.349    34.609
7896.12     71.722    30.520
8010.97     71.415    27.973
8127.49     71.463    25.688
8245.71     70.973    25.113
8365.65     71.184    26.229
8487.33     71.348    26.501
8610.78     71.865    24.190
8736.03     71.899    21.743
8863.09     72.107    18.212
8992.01     71.826    15.261
9122.80     71.727    13.309
9255.50     71.423    11.801
9390.12     71.414     9.649
9526.70     70.616     8.713
9665.27     70.637    10.833
9805.86     70.487    12.752
9948.49     70.889    11.536
10093.2     70.747    12.264
10240.0     71.047    11.431
10388.9     71.292    10.956
10540.1     71.506     7.471
10693.4     71.540     5.396
10848.9     71.331     1.431
11006.7     71.104     0.712
11166.8     70.852    -0.771
11329.2     70.925    -0.767
11494.0     70.807    -1.932
11661.2     71.033    -5.303
11830.8     71.045    -6.846
12002.9     70.680   -12.614
12177.5     70.169   -17.372
12354.6     69.091   -17.292
12534.3     68.135   -14.760
12716.6     68.100   -10.899
12901.6     68.324    -7.676
13089.2     68.615    -8.386
13279.6     68.592   -13.886
13472.8     67.619   -14.114
13668.8     67.255    -9.661
13867.6     67.277    -8.296
14069.3     67.199    -7.479
14273.9     67.101    -4.756
14481.5     67.316    -2.594
14692.2     67.484    -1.897
14905.9     67.741    -2.470
15122.7     67.919    -0.718
15342.7     68.409    -0.544
15565.8     68.816    -2.528
15792.2     68.965    -5.375
16021.9     69.280    -7.042
16255.0     69.645   -10.890
16491.4     69.653   -16.203
16731.3     69.454   -21.263
16974.7     69.004   -26.922
17221.6     68.107   -31.224
17472.1     67.095   -31.756
17726.2     66.308   -28.511
17984.0     66.270   -25.584
18245.6     66.052   -23.650
18511.0     66.473   -20.202
18780.2     67.307   -22.197
19053.4     67.549   -27.420
19330.5     67.466   -31.343
19611.7     67.466   -33.094
19897.0     68.047   -34.499
20186.4     69.367   -42.077
20480.0     70.079   -62.836
20777.9     67.386   -82.027
21080.1     65.413   -81.633
21386.7     64.658   -85.909
21697.8     63.598   -93.380
22013.4     61.993   -99.936
22333.6     60.126  -103.084
22658.4     58.876  -103.529
22988.0     58.020  -106.185
23322.4     57.192  -114.793
23661.6     55.183  -124.960
24005.8     52.940  -129.739
24355.0     51.112  -135.977
24709.2     49.183  -145.607
25068.6     46.637  -160.677
25433.2     42.996   173.434
25803.2     36.361   142.294
26178.5     31.854   147.056
26559.3     37.984   115.063
26945.6     40.908    72.058
27337.5     41.540    41.726
27735.2     40.079    36.517
28138.6     42.704    31.476
28547.9     42.924    14.552
28963.1     42.089     0.520
29384.4     40.015   -13.237
29811.8     35.320    -5.927
30245.4     35.914    23.221
30685.3     38.833    22.566
31131.7     40.531    19.901
31584.5     44.323    -9.401
32043.9     38.583   -54.078
32510.0     34.693   -39.171
32982.8     35.427   -45.327
33462.6     32.912   -74.852
33949.3     27.156   -78.198
34443.1     24.373  -172.265
34944.1     25.368   -83.287
35452.4     25.593  -123.824
35968.0     30.994   101.418
36491.2     30.457   -74.639
37022.0     27.854  -128.348
37560.5     25.137  -153.590
38106.8     23.085   -12.791
38661.1     23.261   103.333
39223.4     22.855   -36.840
39793.9     21.986  -146.525
