Freq[Hz]     dBSPL  Phase[Deg]
5.00000      1.245    25.337
5.07273      1.137    26.379
5.14651      0.938    28.052
5.22137      0.489    31.487
5.29732      0.039    34.922
5.37437     -0.410    38.356
5.45254     -0.860    41.791
5.53185     -1.114    47.507
5.61231     -1.160    55.636
5.69394     -1.207    63.764
5.77676     -1.253    71.893
5.86079     -1.287    79.969
5.94604     -0.569    84.977
6.03252      0.149    89.985
6.12027      0.867    94.993
6.20929      1.586   100.000
6.29961      2.064   101.632
6.39124      2.490   102.514
6.48420      2.915   103.396
6.57851      3.341   104.278
6.67420      3.229   104.549
6.77128      3.030   104.721
6.86977      2.832   104.893
6.96969      2.543   105.529
7.07107      1.567   109.695
7.17392      0.591   113.861
7.27827     -0.385   118.027
7.38413     -0.860   128.458
7.49154     -0.947   143.729
7.60050     -1.035   158.999
7.71105     -0.836   172.534
7.82321      0.628   178.445
7.93701      2.092  -175.645
8.05245      3.555  -169.734
8.16958      4.217  -170.388
8.28841      4.849  -171.287
8.40896      5.481  -172.187
8.53128      5.128  -173.788
8.65537      4.648  -175.481
8.78126      4.169  -177.173
8.90899      1.956  -169.826
9.03857     -0.370  -161.886
9.17004     -2.211  -151.660
9.30342     -0.196  -123.233
9.43874      1.820   -94.806
9.57603      4.045   -78.017
9.71532      6.589   -79.009
9.85663      9.134   -80.002
10.0000     10.544   -85.133
10.1455     11.638   -91.417
10.2930     12.476   -98.350
10.4427     12.602  -107.093
10.5946     12.727  -115.837
10.7487     12.090  -127.472
10.9051     11.302  -139.683
11.0637     10.095  -156.481
11.2246      8.448  -178.129
11.3879      7.178   157.420
11.5535      7.284   122.754
11.7216      7.415    88.297
11.8921      9.025    66.172
12.0650     10.635    44.046
12.2405     11.230    29.140
12.4186     11.694    15.165
12.5992     10.653     4.055
12.7825      9.280    -6.420
12.9684      2.817     9.330
13.1570     -4.832    31.186
13.3484      1.943    68.957
13.5426     11.059   109.313
13.7395     14.779   102.213
13.9394     18.083    93.122
14.1421     19.809    82.770
14.3478     21.189    72.403
14.5565     21.826    62.004
14.7683     21.870    52.052
14.9831     21.456    42.447
15.2010     19.810    35.639
15.4221     17.555    32.998
15.6464     13.552    46.561
15.8740     13.196    73.372
16.1049     15.752   110.763
16.3392     19.061   110.879
16.5768     21.561   106.276
16.8179     22.845    96.841
17.0626     22.712    85.127
17.3107     21.573    72.149
17.5625     19.181    57.693
17.8180     11.099    25.852
18.0771     10.135   -44.325
18.3401     16.133  -140.321
18.6068     20.385  -158.075
18.8775     22.217  -172.515
19.1521     22.177   176.069
19.4306     20.293   169.947
19.7133     15.068  -166.589
20.0000     18.587  -123.270
20.2909     24.108  -102.110
20.5860     28.588  -109.399
20.8855     31.272  -122.352
21.1893     32.645  -137.345
21.4975     33.136  -153.139
21.8102     32.787  -169.410
22.1274     31.501   174.116
22.4492     28.992   157.898
22.7758     24.392   143.727
23.1071     16.903   147.638
23.4432     13.284  -104.814
23.7841     20.954  -107.499
24.1301     23.088  -121.852
24.4811     22.542  -137.432
24.8372     19.425  -150.377
25.1984     11.983  -142.790
25.5649     12.163   -75.511
25.9368     17.040   -61.232
26.3141     19.322   -73.247
26.6968     18.981   -89.220
27.0851     16.569  -104.010
27.4791     12.231  -109.857
27.8788      8.996   -95.012
28.2843     10.804   -90.769
28.6957     13.599  -112.143
29.1131     15.842  -139.558
29.5365     17.125  -162.873
29.9661     17.057  -177.526
30.4020     15.844  -176.810
30.8442     16.364  -156.545
31.2929     19.497  -143.639
31.7480     22.399  -143.781
32.2098     24.204  -148.188
32.6783     25.159  -151.354
33.1536     25.925  -152.274
33.6359     26.810  -152.815
34.1251     27.687  -154.936
34.6215     28.294  -157.848
35.1250     28.720  -159.398
35.6359     29.421  -158.745
36.1543     30.633  -158.800
36.6802     32.038  -161.864
37.2137     33.218  -166.885
37.7550     34.152  -171.247
38.3041     35.101  -173.876
38.8613     36.210  -176.271
39.4265     37.309  -179.492
40.0000     38.241   177.543
40.5818     39.162   175.859
41.1721     40.286   174.125
41.7710     41.438   170.789
42.3785     42.305   166.666
42.9949     43.027   164.122
43.6203     43.974   162.924
44.2548     45.232   160.365
44.8985     46.402   155.760
45.5515     47.356   151.100
46.2141     48.283   147.503
46.8863     49.353   144.195
47.5683     50.482   140.297
48.2602     51.586   136.147
48.9621     52.686   131.874
49.6743     53.749   127.392
50.3968     54.753   123.074
51.1299     55.774   119.061
51.8736     56.833   114.774
52.6281     57.855   109.979
53.3936     58.814   105.087
54.1702     59.767   100.141
54.9581     60.720    94.786
55.7575     61.635    89.047
56.5685     62.523    83.095
57.3914     63.392    76.915
58.2261     64.234    70.591
59.0730     65.059    64.239
59.9323     65.864    57.842
60.8040     66.641    51.450
61.6884     67.394    45.090
62.5857     68.115    38.630
63.4960     68.780    32.096
64.4196     69.403    25.611
65.3566     70.001    19.118
66.3073     70.572    12.555
67.2717     71.107     5.982
68.2502     71.601    -0.482
69.2429     72.067    -6.789
70.2501     72.507   -13.047
71.2719     72.913   -19.357
72.3086     73.294   -25.802
73.3603     73.647   -32.416
74.4274     73.991   -39.029
75.5099     74.351   -45.515
76.6083     74.717   -51.651
77.7226     75.087   -57.202
78.8531     75.435   -62.257
80.0000     75.709   -66.897
81.1636     75.895   -71.385
82.3442     75.977   -76.091
83.5419     75.979   -81.212
84.7570     75.968   -86.928
85.9899     75.989   -93.136
87.2406     76.097   -99.329
88.5096     76.308  -105.236
89.7970     76.542  -110.688
91.1031     76.744  -115.576
92.4282     76.872  -120.251
93.7726     76.923  -124.660
95.1366     76.982  -129.188
96.5204     77.025  -133.751
97.9243     77.136  -138.082
99.3486     77.257  -142.437
100.794     77.372  -146.264
102.260     77.500  -150.297
103.747     77.572  -154.352
105.256     77.644  -158.572
106.787     77.722  -162.754
108.340     77.776  -167.079
109.916     77.820  -170.892
111.515     77.866  -174.732
113.137     77.913  -178.464
114.783     77.961   177.708
116.452     78.013   173.857
118.146     78.060   170.099
119.865     78.101   166.406
121.608     78.139   162.762
123.377     78.166   159.106
125.171     78.184   155.425
126.992     78.190   151.798
128.839     78.189   148.161
130.713     78.171   144.479
132.615     78.131   140.935
134.543     78.092   137.475
136.500     78.075   134.075
138.486     78.046   130.986
140.500     77.976   127.754
142.544     77.878   124.336
144.617     77.789   121.237
146.721     77.737   118.516
148.855     77.815   115.839
151.020     77.712   111.886
153.217     77.597   109.406
155.445     77.458   106.598
157.706     77.325   103.760
160.000     77.150   101.196
162.327     77.040    99.171
164.688     76.959    96.949
167.084     76.924    94.565
169.514     76.874    91.227
171.980     76.639    88.687
174.481     76.490    87.192
177.019     76.391    85.425
179.594     76.314    83.531
182.206     76.225    81.670
184.856     76.161    79.979
187.545     76.131    78.105
190.273     76.106    76.098
193.041     76.053    73.962
195.849     75.972    71.817
198.697     75.883    69.432
201.587     75.737    67.158
204.520     75.555    65.378
207.494     75.419    63.968
210.512     75.328    62.661
213.574     75.266    60.493
216.681     75.077    58.872
219.833     74.961    57.727
223.030     74.836    56.380
226.274     74.700    55.376
229.565     74.643    54.335
232.905     74.593    53.192
236.292     74.573    52.098
239.729     74.533    50.736
243.216     74.512    49.176
246.754     74.441    47.712
250.343     74.357    46.662
253.984     74.280    45.357
257.678     74.237    43.824
261.426     74.191    42.179
265.229     74.119    40.189
269.087     73.935    38.524
273.001     73.750    37.111
276.972     73.481    35.186
281.000     73.059    35.487
285.088     72.973    36.871
289.234     73.084    37.115
293.441     73.136    36.197
297.709     73.138    35.065
302.040     73.108    33.851
306.433     72.921    32.697
310.890     72.912    32.683
315.412     72.880    31.402
320.000     72.760    30.853
324.655     72.599    30.326
329.377     72.621    30.788
334.168     72.629    29.586
339.028     72.574    29.214
343.959     72.598    28.024
348.962     72.526    27.225
354.038     72.389    26.901
359.188     72.348    26.885
364.412     72.368    26.313
369.713     72.392    25.588
375.090     72.302    25.306
380.546     72.330    24.841
386.081     72.377    24.150
391.697     72.332    23.331
397.394     72.327    22.576
403.175     72.301    21.651
409.039     72.223    21.191
414.989     72.271    20.711
421.025     72.326    19.483
427.149     72.241    17.907
433.362     72.167    17.514
439.665     72.234    15.855
446.060     72.051    14.318
452.548     71.960    12.539
459.131     71.545    10.609
465.809     71.039     9.911
472.584     70.431    12.363
479.458     70.482    15.275
486.432     70.600    15.388
493.507     70.459    15.101
500.686     70.296    15.596
507.968     70.136    16.241
515.357     70.016    17.201
522.853     69.916    17.991
530.458     69.783    18.995
538.174     69.672    20.040
546.002     69.616    21.571
553.943     69.568    22.953
562.001     69.558    24.425
570.175     69.605    25.906
578.469     69.659    27.122
586.883     69.746    28.285
595.419     69.863    29.274
604.080     69.967    30.003
612.866     70.108    30.629
621.780     70.238    30.962
630.824     70.356    31.066
640.000     70.457    31.158
649.309     70.540    30.941
658.753     70.592    30.744
668.335     70.610    30.407
678.056     70.616    30.120
687.919     70.574    29.874
697.925     70.516    29.685
708.077     70.444    29.753
718.376     70.352    30.035
728.825     70.264    30.569
739.426     70.188    31.348
750.181     70.145    32.398
761.093     70.144    33.604
772.163     70.201    34.828
783.394     70.317    36.052
794.789     70.483    37.076
806.349     70.697    37.810
818.078     70.936    38.213
829.977     71.183    38.184
842.050     71.428    37.744
854.298     71.648    36.913
866.724     71.836    35.739
879.330     71.984    34.271
892.120     72.089    32.590
905.097     72.129    30.784
918.262     72.120    28.812
931.618     72.051    26.829
945.169     71.935    24.922
958.917     71.758    23.087
972.864     71.537    21.367
987.015     71.272    19.845
1001.37     70.953    18.509
1015.94     70.603    17.413
1030.71     70.231    16.597
1045.71     69.820    16.083
1060.92     69.387    15.846
1076.35     68.939    15.983
1092.00     68.483    16.423
1107.89     68.030    17.288
1124.00     67.593    18.392
1140.35     67.210    19.907
1156.94     66.850    21.684
1173.77     66.565    23.576
1190.84     66.310    25.426
1208.16     66.082    27.057
1225.73     65.875    28.386
1243.56     65.638    29.543
1261.65     65.369    30.604
1280.00     65.015    31.750
1298.62     64.616    32.934
1317.51     64.185    34.627
1336.67     63.742    36.624
1356.11     63.335    38.952
1375.84     62.935    41.224
1395.85     62.538    43.102
1416.15     62.045    44.238
1436.75     61.360    45.143
1457.65     60.249    46.283
1478.85     58.562    49.120
1500.36     56.126    58.026
1522.19     53.651    81.663
1544.33     54.272   117.737
1566.79     57.691   138.932
1589.58     60.846   145.544
1612.70     63.196   146.180
1636.16     64.889   144.794
1659.95     66.140   143.045
1684.10     67.084   141.763
1708.60     67.895   141.436
1733.45     68.691   141.862
1758.66     69.583   142.382
1784.24     70.591   142.203
1810.19     71.634   140.805
1836.52     72.619   138.054
1863.24     73.460   134.113
1890.34     74.102   129.442
1917.83     74.523   124.451
1945.73     74.726   119.656
1974.03     74.731   115.470
2002.74     74.602   112.326
2031.87     74.417   110.527
2061.43     74.277   109.919
2091.41     74.268   110.024
2121.83     74.407   110.091
2152.69     74.638   109.514
2184.01     74.864   108.119
2215.77     75.003   106.117
2248.00     75.016   104.048
2280.70     74.921   102.418
2313.87     74.791   101.590
2347.53     74.719   101.475
2381.68     74.770   101.512
2416.32     74.914   100.943
2451.46     75.050    99.416
2487.12     75.062    97.147
2523.30     74.887    94.909
2560.00     74.560    93.569
2597.24     74.220    93.697
2635.01     74.047    94.850
2673.34     74.094    95.736
2712.23     74.219    95.264
2751.68     74.212    93.632
2791.70     73.964    92.050
2832.31     73.569    91.956
2873.50     73.295    93.732
2915.30     73.349    95.847
2957.70     73.607    96.353
3000.72     73.769    95.047
3044.37     73.688    93.480
3088.65     73.492    93.163
3133.58     73.472    93.937
3179.16     73.701    93.823
3225.40     73.916    91.546
3272.31     73.826    88.086
3319.91     73.402    85.685
3368.20     72.939    85.813
3417.19     72.827    87.297
3466.89     73.045    87.193
3517.32     73.196    84.546
3568.48     73.003    81.116
3620.39     72.552    79.257
3673.05     72.246    79.574
3726.47     72.334    79.529
3780.67     72.511    76.608
3835.67     72.326    71.842
3891.46     71.724    68.369
3948.06     71.155    67.701
4005.49     70.950    67.225
4063.75     70.758    64.614
4122.86     70.253    62.109
4182.82     69.783    61.891
4243.66     69.685    61.257
4305.39     69.511    58.245
4368.01     69.005    55.888
4431.55     68.629    55.548
4496.01     68.510    54.193
4561.40     68.215    52.079
4627.75     67.995    51.615
4695.06     68.138    49.599
4763.35     67.955    44.520
4832.64     67.200    41.794
4902.93     66.752    43.415
4974.24     66.886    44.152
5046.60     67.057    43.088
5120.00     67.340    41.674
5194.47     67.743    38.191
5270.03     67.863    32.377
5346.68     67.410    27.069
5424.45     66.812    26.658
5503.35     67.034    27.495
5583.40     67.257    23.223
5664.61     66.821    20.604
5747.01     66.803    20.653
5830.60     66.674    17.804
5915.41     66.232    19.979
6001.45     66.982    22.574
6088.74     67.594    17.901
6177.30     67.587    13.791
6267.15     67.561    10.062
6358.31     67.164     5.864
6450.80     66.441     4.809
6544.62     66.098     6.780
6639.82     65.908     6.678
6736.40     65.524    10.410
6834.38     66.294    12.144
6933.79     66.191     7.477
7034.64     65.928     9.067
7136.96     66.031     5.934
7240.77     65.000     5.037
7346.09     64.524    11.871
7452.94     65.244    16.149
7561.35     65.716    12.365
7671.33     65.136     9.282
7782.91     64.308    12.426
7896.12     64.417    18.074
8010.97     64.797    21.276
8127.49     65.620    19.545
8245.71     65.181    16.152
8365.65     65.156    17.119
8487.33     64.945    17.581
8610.78     65.126    14.891
8736.03     64.073    15.595
8863.09     64.123    18.730
8992.01     63.886    20.883
9122.80     63.823    20.916
9255.50     63.222    24.779
9390.12     63.357    28.799
9526.70     63.123    33.949
9665.27     63.630    38.314
9805.86     63.828    45.694
9948.49     65.031    49.860
10093.2     66.195    52.923
10240.0     67.507    52.397
10388.9     68.825    49.343
10540.1     69.617    42.678
10693.4     69.998    38.563
10848.9     70.342    33.270
11006.7     70.495    29.683
11166.8     70.589    26.188
11329.2     70.947    23.495
11494.0     70.994    18.990
11661.2     71.179    13.494
11830.8     70.933     9.973
12002.9     70.507     5.667
12177.5     70.344     1.727
12354.6     69.653    -0.209
12534.3     68.907    -1.022
12716.6     68.806     0.366
12901.6     68.697     1.053
13089.2     68.676     0.364
13279.6     68.834    -1.755
13472.8     68.593    -6.432
13668.8     67.808    -6.853
13867.6     67.474    -6.680
14069.3     67.213    -6.269
14273.9     67.086    -4.958
14481.5     66.998    -5.056
14692.2     66.674    -5.157
14905.9     66.671    -2.793
15122.7     67.117    -1.334
15342.7     67.685    -1.799
15565.8     68.154    -6.858
15792.2     68.054   -11.537
16021.9     68.127   -15.457
16255.0     67.975   -20.807
16491.4     67.646   -26.346
16731.3     66.921   -32.784
16974.7     65.811   -36.827
17221.6     64.715   -38.099
17472.1     63.598   -37.412
17726.2     62.984   -32.900
17984.0     63.021   -32.421
18245.6     62.361   -33.681
18511.0     61.917   -30.639
18780.2     61.995   -29.776
19053.4     61.755   -28.900
19330.5     62.345   -26.640
19611.7     62.932   -31.073
19897.0     63.560   -34.100
20186.4     64.813   -44.158
20480.0     65.036   -68.522
20777.9     61.295   -84.717
21080.1     59.584   -82.254
21386.7     58.070   -87.373
21697.8     56.502   -89.891
22013.4     54.592   -91.264
22333.6     53.147   -88.690
22658.4     52.154   -87.714
22988.0     51.567   -89.806
23322.4     50.610   -97.242
23661.6     48.517  -106.999
24005.8     46.227  -110.380
24355.0     44.593  -122.467
24709.2     41.919  -148.153
25068.6     37.320   165.788
25433.2     37.278    99.852
25803.2     38.334    57.112
26178.5     38.625    40.483
26559.3     40.688    37.170
26945.6     41.455    21.360
27337.5     40.823     8.165
27735.2     38.657     5.757
28138.6     38.693    10.709
28547.9     38.489     9.613
28963.1     37.479     0.888
29384.4     35.162     5.399
29811.8     33.962    15.504
30245.4     34.453    23.689
30685.3     35.821    14.695
31131.7     34.628     2.477
31584.5     34.718   -14.798
32043.9     30.493   -35.597
32510.0     30.471   -28.693
32982.8     31.677   -57.861
33462.6     29.257   -76.600
33949.3     28.328  -108.771
34443.1     26.172  -122.841
34944.1     26.146  -139.205
35452.4     26.740  -164.449
35968.0     31.281   118.177
36491.2     24.755   -23.314
37022.0     22.426  -132.264
37560.5     24.559   -84.184
38106.8     24.907   -86.805
38661.1     26.012   -98.441
39223.4     26.476  -111.976
39793.9     25.471   -66.694
