Freq[Hz]     dBSPL  Phase[Deg]
5.00000     25.483  -113.012
5.07273     25.538  -114.000
5.14651     25.609  -115.285
5.22137     25.704  -117.011
5.29732     25.810  -118.918
5.37437     25.926  -121.029
5.45254     26.043  -123.140
5.53185     26.159  -125.250
5.61231     26.281  -127.332
5.69394     26.414  -129.349
5.77676     26.576  -131.203
5.86079     26.777  -132.832
5.94604     27.016  -134.234
6.03252     27.293  -135.411
6.12027     27.594  -136.430
6.20929     27.906  -137.384
6.29961     28.221  -138.311
6.39124     28.536  -139.239
6.48420     28.852  -140.166
6.57851     29.167  -141.094
6.67420     29.483  -142.022
6.77128     29.798  -142.950
6.86977     30.113  -143.878
6.96969     30.429  -144.807
7.07107     30.744  -145.736
7.17392     31.060  -146.665
7.27827     31.375  -147.594
7.38413     31.690  -148.523
7.49154     32.006  -149.453
7.60050     32.321  -150.383
7.71105     32.637  -151.313
7.82321     32.952  -152.244
7.93701     33.267  -153.174
8.05245     33.583  -154.105
8.16958     33.898  -155.036
8.28841     34.214  -155.968
8.40896     34.528  -156.891
8.53128     34.840  -157.796
8.65537     35.148  -158.655
8.78126     35.448  -159.447
8.90899     35.741  -160.171
9.03857     36.027  -160.827
9.17004     36.309  -161.434
9.30342     36.589  -162.020
9.43874     36.868  -162.597
9.57603     37.146  -163.173
9.71532     37.425  -163.750
9.85663     37.704  -164.328
10.0000     37.983  -164.905
10.1455     38.262  -165.483
10.2930     38.541  -166.061
10.4427     38.820  -166.640
10.5946     39.098  -167.219
10.7487     39.377  -167.798
10.9051     39.656  -168.378
11.0637     39.935  -168.957
11.2246     40.213  -169.536
11.3879     40.490  -170.113
11.5535     40.765  -170.682
11.7216     41.035  -171.242
11.8921     41.302  -171.792
12.0650     41.565  -172.333
12.2405     41.826  -172.867
12.4186     42.086  -173.398
12.5992     42.345  -173.929
12.7825     42.604  -174.460
12.9684     42.864  -174.991
13.1570     43.123  -175.523
13.3484     43.383  -176.056
13.5426     43.642  -176.588
13.7395     43.901  -177.121
13.9394     44.160  -177.655
14.1421     44.418  -178.190
14.3478     44.674  -178.727
14.5565     44.926  -179.266
14.7683     45.173  -179.810
14.9831     45.416   179.644
15.2010     45.656   179.094
15.4221     45.893   178.543
15.6464     46.130   177.991
15.8740     46.367   177.438
16.1049     46.604   176.884
16.3392     46.840   176.330
16.5768     47.077   175.775
16.8179     47.314   175.220
17.0626     47.550   174.663
17.3107     47.787   174.103
17.5625     48.025   173.538
17.8180     48.262   172.969
18.0771     48.500   172.396
18.3401     48.738   171.819
18.6068     48.976   171.241
18.8775     49.214   170.661
19.1521     49.452   170.081
19.4306     49.690   169.500
19.7133     49.928   168.918
20.0000     50.165   168.331
20.2909     50.401   167.739
20.5860     50.636   167.139
20.8855     50.870   166.531
21.1893     51.102   165.915
21.4975     51.333   165.295
21.8102     51.564   164.673
22.1274     51.795   164.049
22.4492     52.026   163.423
22.7758     52.257   162.795
23.1071     52.486   162.162
23.4432     52.715   161.521
23.7841     52.942   160.874
24.1301     53.168   160.219
24.4811     53.394   159.559
24.8372     53.619   158.896
25.1984     53.844   158.231
25.5649     54.068   157.563
25.9368     54.292   156.890
26.3141     54.514   156.209
26.6968     54.735   155.520
27.0851     54.955   154.823
27.4791     55.175   154.120
27.8788     55.393   153.413
28.2843     55.612   152.702
28.6957     55.829   151.987
29.1131     56.046   151.266
29.5365     56.263   150.537
29.9661     56.478   149.800
30.4020     56.692   149.057
30.8442     56.906   148.309
31.2929     57.120   147.557
31.7480     57.333   146.799
32.2098     57.544   146.033
32.6783     57.755   145.259
33.1536     57.965   144.477
33.6359     58.174   143.688
34.1251     58.382   142.895
34.6215     58.590   142.096
35.1250     58.796   141.289
35.6359     59.002   140.476
36.1543     59.206   139.654
36.6802     59.410   138.826
37.2137     59.613   137.992
37.7550     59.815   137.151
38.3041     60.015   136.302
38.8613     60.215   135.445
39.4265     60.414   134.580
40.0000     60.612   133.708
40.5818     60.809   132.829
41.1721     61.005   131.942
41.7710     61.200   131.048
42.3785     61.394   130.146
42.9949     61.586   129.237
43.6203     61.778   128.320
44.2548     61.968   127.396
44.8985     62.157   126.464
45.5515     62.345   125.524
46.2141     62.532   124.575
46.8863     62.718   123.617
47.5683     62.903   122.649
48.2602     63.088   121.672
48.9621     63.271   120.685
49.6743     63.454   119.687
50.3968     63.636   118.680
51.1299     63.817   117.663
51.8736     63.997   116.635
52.6281     64.176   115.598
53.3936     64.354   114.552
54.1702     64.530   113.497
54.9581     64.705   112.432
55.7575     64.878   111.359
56.5685     65.050   110.277
57.3914     65.220   109.189
58.2261     65.389   108.092
59.0730     65.556   106.990
59.9323     65.721   105.882
60.8040     65.885   104.768
61.6884     66.046   103.648
62.5857     66.206   102.522
63.4960     66.363   101.388
64.4196     66.518   100.246
65.3566     66.671    99.097
66.3073     66.821    97.937
67.2717     66.969    96.765
68.2502     67.115    95.583
69.2429     67.258    94.389
70.2501     67.399    93.183
71.2719     67.538    91.965
72.3086     67.674    90.736
73.3603     67.809    89.496
74.4274     67.943    88.248
75.5099     68.075    86.991
76.6083     68.205    85.728
77.7226     68.334    84.460
78.8531     68.461    83.187
80.0000     68.586    81.911
81.1636     68.708    80.630
82.3442     68.828    79.346
83.5419     68.945    78.057
84.7570     69.060    76.763
85.9899     69.172    75.463
87.2406     69.281    74.158
88.5096     69.387    72.848
89.7970     69.490    71.531
91.1031     69.591    70.206
92.4282     69.689    68.874
93.7726     69.785    67.533
95.1366     69.880    66.185
96.5204     69.974    64.833
97.9243     70.065    63.481
99.3486     70.154    62.134
100.794     70.241    60.791
102.260     70.323    59.450
103.747     70.402    58.107
105.256     70.477    56.754
106.787     70.550    55.391
108.340     70.622    54.021
109.916     70.692    52.648
111.515     70.760    51.278
113.137     70.827    49.914
114.783     70.890    48.554
116.452     70.950    47.195
118.146     71.006    45.831
119.865     71.060    44.462
121.608     71.112    43.087
123.377     71.162    41.712
125.171     71.211    40.341
126.992     71.258    38.977
128.839     71.303    37.620
130.713     71.345    36.270
132.615     71.384    34.924
134.543     71.421    33.584
136.500     71.456    32.254
138.486     71.489    30.935
140.500     71.519    29.629
142.544     71.547    28.333
144.617     71.573    27.047
146.721     71.597    25.771
148.855     71.619    24.503
151.020     71.641    23.247
153.217     71.661    22.001
155.445     71.680    20.761
157.706     71.699    19.526
160.000     71.717    18.294
162.327     71.735    17.065
164.688     71.752    15.835
167.084     71.769    14.604
169.514     71.785    13.369
171.980     71.801    12.127
174.481     71.817    10.877
177.019     71.831     9.619
179.594     71.845     8.349
182.206     71.857     7.066
184.856     71.867     5.767
187.545     71.875     4.452
190.273     71.880     3.121
193.041     71.882     1.772
195.849     71.880     0.405
198.697     71.874    -0.977
201.587     71.864    -2.375
204.520     71.849    -3.786
207.494     71.827    -5.206
210.512     71.800    -6.631
213.574     71.765    -8.059
216.681     71.723    -9.482
219.833     71.673   -10.894
223.030     71.616   -12.290
226.274     71.550   -13.660
229.565     71.478   -14.997
232.905     71.398   -16.293
236.292     71.311   -17.540
239.729     71.219   -18.731
243.216     71.123   -19.859
246.754     71.024   -20.920
250.343     70.924   -21.908
253.984     70.824   -22.819
257.678     70.726   -23.654
261.426     70.631   -24.414
265.229     70.539   -25.106
269.087     70.451   -25.738
273.001     70.369   -26.322
276.972     70.294   -26.871
281.000     70.227   -27.397
285.088     70.167   -27.914
289.234     70.116   -28.436
293.441     70.071   -28.974
297.709     70.034   -29.540
302.040     70.002   -30.141
306.433     69.975   -30.783
310.890     69.951   -31.469
315.412     69.930   -32.201
320.000     69.911   -32.977
324.655     69.892   -33.795
329.377     69.873   -34.650
334.168     69.854   -35.538
339.028     69.833   -36.453
343.959     69.811   -37.390
348.962     69.788   -38.343
354.038     69.764   -39.312
359.188     69.738   -40.293
364.412     69.713   -41.285
369.713     69.687   -42.289
375.090     69.662   -43.305
380.546     69.637   -44.331
386.081     69.612   -45.368
391.697     69.587   -46.413
397.394     69.560   -47.463
403.175     69.531   -48.514
409.039     69.498   -49.559
414.989     69.462   -50.591
421.025     69.420   -51.602
427.149     69.373   -52.582
433.362     69.321   -53.525
439.665     69.264   -54.422
446.060     69.205   -55.269
452.548     69.145   -56.061
459.131     69.085   -56.797
465.809     69.028   -57.479
472.584     68.974   -58.117
479.458     68.927   -58.720
486.432     68.887   -59.306
493.507     68.858   -59.895
500.686     68.839   -60.511
507.968     68.831   -61.177
515.357     68.833   -61.915
522.853     68.842   -62.743
530.458     68.857   -63.670
538.174     68.872   -64.696
546.002     68.885   -65.812
553.943     68.894   -67.001
562.001     68.896   -68.239
570.175     68.892   -69.502
578.469     68.884   -70.767
586.883     68.874   -72.022
595.419     68.866   -73.267
604.080     68.864   -74.515
612.866     68.867   -75.789
621.780     68.876   -77.119
630.824     68.887   -78.527
640.000     68.894   -80.016
649.309     68.889   -81.566
658.753     68.868   -83.128
668.335     68.827   -84.629
678.056     68.768   -85.988
687.919     68.699   -87.135
697.925     68.632   -88.036
708.077     68.579   -88.702
718.376     68.556   -89.197
728.825     68.571   -89.633
739.426     68.626   -90.149
750.181     68.717   -90.883
761.093     68.833   -91.957
772.163     68.960   -93.447
783.394     69.083   -95.373
794.789     69.190   -97.707
806.349     69.272  -100.373
818.078     69.324  -103.261
829.977     69.344  -106.246
842.050     69.332  -109.188
854.298     69.293  -111.950
866.724     69.233  -114.419
879.330     69.161  -116.540
892.120     69.089  -118.330
905.097     69.028  -119.886
918.262     68.984  -121.368
931.618     68.958  -122.946
945.169     68.942  -124.759
958.917     68.922  -126.856
972.864     68.883  -129.162
987.015     68.816  -131.518
1001.37     68.720  -133.727
1015.94     68.610  -135.629
1030.71     68.507  -137.196
1045.71     68.433  -138.537
1060.92     68.401  -139.859
1076.35     68.411  -141.397
1092.00     68.452  -143.321
1107.89     68.505  -145.677
1124.00     68.553  -148.370
1140.35     68.587  -151.228
1156.94     68.606  -154.080
1173.77     68.616  -156.822
1190.84     68.624  -159.439
1208.16     68.637  -162.008
1225.73     68.654  -164.651
1243.56     68.674  -167.431
1261.65     68.695  -170.345
1280.00     68.717  -173.356
1298.62     68.742  -176.389
1317.51     68.772  -179.425
1336.67     68.804   177.507
1356.11     68.835   174.375
1375.84     68.859   171.094
1395.85     68.872   167.625
1416.15     68.869   163.980
1436.75     68.845   160.217
1457.65     68.804   156.454
1478.85     68.751   152.797
1500.36     68.699   149.314
1522.19     68.660   145.967
1544.33     68.639   142.652
1566.79     68.640   139.236
1589.58     68.654   135.584
1612.70     68.674   131.658
1636.16     68.693   127.417
1659.95     68.692   122.873
1684.10     68.663   118.157
1708.60     68.599   113.377
1733.45     68.500   108.697
1758.66     68.385   104.316
1784.24     68.275   100.305
1810.19     68.188    96.576
1836.52     68.131    92.989
1863.24     68.097    89.240
1890.34     68.059    85.083
1917.83     67.998    80.507
1945.73     67.916    75.569
1974.03     67.822    70.509
2002.74     67.741    65.634
2031.87     67.687    60.959
2061.43     67.649    56.448
2091.41     67.607    51.970
2121.83     67.532    47.408
2152.69     67.411    42.813
2184.01     67.247    38.306
2215.77     67.061    34.091
2248.00     66.895    30.335
2280.70     66.785    26.939
2313.87     66.754    23.707
2347.53     66.804    20.327
2381.68     66.902    16.426
2416.32     67.009    11.813
2451.46     67.092     6.447
2487.12     67.129     0.466
2523.30     67.124    -5.824
2560.00     67.087   -12.165
2597.24     67.023   -18.376
2635.01     66.923   -24.314
2673.34     66.778   -29.824
2712.23     66.583   -34.704
2751.68     66.352   -38.721
2791.70     66.128   -41.828
2832.31     65.959   -44.334
2873.50     65.872   -46.780
2915.30     65.867   -49.787
2957.70     65.914   -53.767
3000.72     65.979   -58.739
3044.37     66.025   -64.310
3088.65     66.038   -69.903
3133.58     66.023   -75.060
3179.16     65.993   -79.497
3225.40     65.977   -83.267
3272.31     65.994   -86.705
3319.91     66.057   -90.118
3368.20     66.175   -93.878
3417.19     66.337   -98.292
3466.89     66.511  -103.485
3517.32     66.648  -109.512
3568.48     66.700  -116.182
3620.39     66.646  -123.075
3673.05     66.502  -129.574
3726.47     66.341  -135.059
3780.67     66.260  -139.356
3835.67     66.327  -142.780
3891.46     66.550  -146.154
3948.06     66.852  -150.483
4005.49     67.115  -156.215
4063.75     67.254  -163.138
4122.86     67.248  -170.468
4182.82     67.128  -177.078
4243.66     66.974   177.859
4305.39     66.878   174.328
4368.01     66.894   171.542
4431.55     67.004   168.433
4496.01     67.153   164.149
4561.40     67.288   158.421
4627.75     67.388   151.541
4695.06     67.458   144.140
4763.35     67.519   136.802
4832.64     67.583   129.736
4902.93     67.635   122.891
4974.24     67.647   116.210
5046.60     67.612   109.711
5120.00     67.544   103.516
5194.47     67.467    97.746
5270.03     67.418    92.342
5346.68     67.430    86.893
5424.45     67.506    80.880
5503.35     67.616    73.987
5583.40     67.729    66.145
5664.61     67.791    57.503
5747.01     67.705    48.706
5830.60     67.451    40.742
5915.41     67.113    34.094
6001.45     66.772    28.684
6088.74     66.475    24.136
6177.30     66.238    19.876
6267.15     66.057    15.511
6358.31     65.919    10.873
6450.80     65.814     6.004
6544.62     65.757     1.104
6639.82     65.776    -3.805
6736.40     65.876    -8.972
6834.38     66.030   -14.787
6933.79     66.204   -21.560
7034.64     66.368   -29.332
7136.96     66.494   -37.778
7240.77     66.576   -46.511
7346.09     66.616   -55.337
7452.94     66.613   -64.167
7561.35     66.561   -73.018
7671.33     66.455   -81.870
7782.91     66.308   -90.577
7896.12     66.139   -99.028
8010.97     65.961  -107.082
8127.49     65.802  -114.790
8245.71     65.675  -122.408
8365.65     65.576  -130.150
8487.33     65.490  -138.220
8610.78     65.394  -146.649
8736.03     65.278  -155.256
8863.09     65.138  -163.874
8992.01     64.968  -172.331
9122.80     64.783   179.413
9255.50     64.587   171.250
9390.12     64.389   163.275
9526.70     64.233   155.494
9665.27     64.143   147.688
9805.86     64.114   139.768
9948.49     64.136   131.452
10093.2     64.174   122.464
10240.0     64.208   112.839
10388.9     64.223   102.596
10540.1     64.213    91.866
10693.4     64.159    80.872
10848.9     64.032    69.846
11006.7     63.819    59.096
11166.8     63.519    48.847
11329.2     63.147    39.257
11494.0     62.757    30.365
11661.2     62.422    21.838
11830.8     62.196    13.237
12002.9     62.099     4.267
12177.5     62.126    -5.485
12354.6     62.228   -16.196
12534.3     62.356   -27.728
12716.6     62.474   -40.091
12901.6     62.551   -53.074
13089.2     62.575   -66.252
13279.6     62.555   -79.323
13472.8     62.505   -91.931
13668.8     62.447  -103.958
13867.6     62.393  -115.678
14069.3     62.326  -127.513
14273.9     62.213  -139.877
14481.5     62.035  -152.956
14692.2     61.785  -166.600
14905.9     61.496   179.602
15122.7     61.215   166.049
15342.7     60.985   152.988
15565.8     60.831   140.456
15792.2     60.755   128.165
16021.9     60.740   115.633
16255.0     60.756   102.336
16491.4     60.752    87.879
16731.3     60.695    72.274
16974.7     60.563    55.885
17221.6     60.373    39.291
17472.1     60.171    22.972
17726.2     60.009     6.967
17984.0     59.902    -9.087
18245.6     59.832   -25.712
18511.0     59.742   -43.318
18780.2     59.577   -61.840
19053.4     59.277   -80.712
19330.5     58.834   -99.093
19611.7     58.212  -116.438
19897.0     57.511  -132.262
20186.4     56.850  -147.449
20480.0     56.228  -162.342
20777.9     55.752  -177.124
21080.1     55.536   167.404
21386.7     55.384   151.037
21697.8     55.246   134.063
22013.4     55.060   116.123
22333.6     54.700    96.503
22658.4     54.084    75.184
22988.0     53.212    51.853
23322.4     52.178    27.306
23661.6     51.150     3.066
