Freq[Hz]     dBSPL  Phase[Deg]
5.00000     25.184  -112.767
5.07273     25.239  -113.753
5.14651     25.311  -115.036
5.22137     25.406  -116.760
5.29732     25.512  -118.664
5.37437     25.629  -120.772
5.45254     25.746  -122.880
5.53185     25.863  -124.987
5.61231     25.985  -127.066
5.69394     26.119  -129.079
5.77676     26.282  -130.930
5.86079     26.483  -132.555
5.94604     26.724  -133.952
6.03252     27.001  -135.124
6.12027     27.304  -136.136
6.20929     27.617  -137.085
6.29961     27.933  -138.006
6.39124     28.250  -138.928
6.48420     28.566  -139.849
6.57851     28.883  -140.771
6.67420     29.200  -141.693
6.77128     29.516  -142.615
6.86977     29.833  -143.538
6.96969     30.150  -144.460
7.07107     30.466  -145.383
7.17392     30.783  -146.306
7.27827     31.100  -147.229
7.38413     31.416  -148.153
7.49154     31.733  -149.076
7.60050     32.049  -150.000
7.71105     32.366  -150.924
7.82321     32.683  -151.849
7.93701     32.999  -152.774
8.05245     33.316  -153.698
8.16958     33.633  -154.624
8.28841     33.949  -155.549
8.40896     34.265  -156.467
8.53128     34.578  -157.365
8.65537     34.887  -158.217
8.78126     35.189  -159.002
8.90899     35.484  -159.718
9.03857     35.772  -160.365
9.17004     36.056  -160.962
9.30342     36.338  -161.539
9.43874     36.619  -162.106
9.57603     36.900  -162.673
9.71532     37.181  -163.240
9.85663     37.462  -163.807
10.0000     37.743  -164.375
10.1455     38.024  -164.943
10.2930     38.305  -165.512
10.4427     38.586  -166.081
10.5946     38.867  -166.650
10.7487     39.148  -167.219
10.9051     39.429  -167.789
11.0637     39.710  -168.359
11.2246     39.991  -168.928
11.3879     40.270  -169.494
11.5535     40.547  -170.053
11.7216     40.820  -170.601
11.8921     41.089  -171.139
12.0650     41.356  -171.667
12.2405     41.619  -172.187
12.4186     41.882  -172.704
12.5992     42.145  -173.221
12.7825     42.407  -173.738
12.9684     42.670  -174.255
13.1570     42.933  -174.773
13.3484     43.195  -175.291
13.5426     43.458  -175.810
13.7395     43.720  -176.329
13.9394     43.982  -176.848
14.1421     44.244  -177.368
14.3478     44.503  -177.889
14.5565     44.760  -178.411
14.7683     45.013  -178.934
14.9831     45.263  -179.459
15.2010     45.510  -179.984
15.4221     45.756   179.489
15.6464     46.001   178.962
15.8740     46.245   178.435
16.1049     46.490   177.907
16.3392     46.735   177.378
16.5768     46.980   176.849
16.8179     47.225   176.319
17.0626     47.469   175.788
17.3107     47.714   175.253
17.5625     47.957   174.713
17.8180     48.201   174.168
18.0771     48.444   173.618
18.3401     48.687   173.064
18.6068     48.930   172.509
18.8775     49.173   171.952
19.1521     49.416   171.395
19.4306     49.658   170.837
19.7133     49.901   170.277
20.0000     50.143   169.714
20.2909     50.383   169.146
20.5860     50.623   168.570
20.8855     50.861   167.986
21.1893     51.099   167.397
21.4975     51.335   166.802
21.8102     51.571   166.205
22.1274     51.807   165.607
22.4492     52.043   165.008
22.7758     52.279   164.406
23.1071     52.514   163.799
23.4432     52.747   163.186
23.7841     52.980   162.566
24.1301     53.211   161.939
24.4811     53.442   161.307
24.8372     53.673   160.672
25.1984     53.903   160.036
25.5649     54.133   159.396
25.9368     54.362   158.752
26.3141     54.590   158.100
26.6968     54.816   157.441
27.0851     55.042   156.774
27.4791     55.267   156.101
27.8788     55.491   155.424
28.2843     55.715   154.744
28.6957     55.938   154.060
29.1131     56.161   153.369
29.5365     56.382   152.671
29.9661     56.603   151.966
30.4020     56.823   151.255
30.8442     57.043   150.539
31.2929     57.262   149.819
31.7480     57.480   149.093
32.2098     57.697   148.359
32.6783     57.914   147.618
33.1536     58.129   146.869
33.6359     58.343   146.114
34.1251     58.557   145.354
34.6215     58.770   144.588
35.1250     58.982   143.815
35.6359     59.193   143.035
36.1543     59.403   142.248
36.6802     59.612   141.454
37.2137     59.820   140.654
37.7550     60.027   139.847
38.3041     60.234   139.033
38.8613     60.439   138.211
39.4265     60.643   137.381
40.0000     60.846   136.544
40.5818     61.048   135.700
41.1721     61.249   134.849
41.7710     61.449   133.990
42.3785     61.648   133.125
42.9949     61.845   132.251
43.6203     62.042   131.371
44.2548     62.237   130.483
44.8985     62.430   129.588
45.5515     62.623   128.685
46.2141     62.815   127.773
46.8863     63.005   126.852
47.5683     63.195   125.922
48.2602     63.383   124.982
48.9621     63.571   124.033
49.6743     63.757   123.074
50.3968     63.943   122.105
51.1299     64.127   121.127
51.8736     64.310   120.139
52.6281     64.492   119.141
53.3936     64.673   118.134
54.1702     64.852   117.119
54.9581     65.029   116.094
55.7575     65.206   115.062
56.5685     65.380   114.021
57.3914     65.554   112.974
58.2261     65.725   111.920
59.0730     65.895   110.859
59.9323     66.063   109.794
60.8040     66.230   108.723
61.6884     66.394   107.646
62.5857     66.556   106.563
63.4960     66.717   105.474
64.4196     66.874   104.377
65.3566     67.030   103.273
66.3073     67.182   102.159
67.2717     67.333   101.034
68.2502     67.480    99.899
69.2429     67.626    98.752
70.2501     67.768    97.594
71.2719     67.909    96.425
72.3086     68.047    95.246
73.3603     68.184    94.057
74.4274     68.319    92.859
75.5099     68.452    91.654
76.6083     68.584    90.444
77.7226     68.714    89.229
78.8531     68.842    88.010
80.0000     68.967    86.789
81.1636     69.090    85.565
82.3442     69.211    84.337
83.5419     69.328    83.106
84.7570     69.443    81.871
85.9899     69.555    80.632
87.2406     69.664    79.388
88.5096     69.769    78.139
89.7970     69.872    76.886
91.1031     69.973    75.626
92.4282     70.070    74.359
93.7726     70.166    73.085
95.1366     70.259    71.806
96.5204     70.351    70.524
97.9243     70.442    69.244
99.3486     70.529    67.970
100.794     70.614    66.702
102.260     70.694    65.437
103.747     70.771    64.172
105.256     70.844    62.899
106.787     70.914    61.618
108.340     70.983    60.331
109.916     71.050    59.044
111.515     71.116    57.763
113.137     71.179    56.489
114.783     71.239    55.222
116.452     71.295    53.958
118.146     71.348    52.692
119.865     71.397    51.422
121.608     71.445    50.151
123.377     71.491    48.882
125.171     71.536    47.620
126.992     71.578    46.369
128.839     71.618    45.128
130.713     71.654    43.897
132.615     71.688    42.674
134.543     71.720    41.462
136.500     71.749    40.263
138.486     71.776    39.080
140.500     71.800    37.914
142.544     71.822    36.764
144.617     71.842    35.628
146.721     71.859    34.508
148.855     71.876    33.402
151.020     71.892    32.313
153.217     71.906    31.240
155.445     71.919    30.181
157.706     71.932    29.135
160.000     71.944    28.100
162.327     71.956    27.075
164.688     71.967    26.057
167.084     71.978    25.047
169.514     71.989    24.044
171.980     71.999    23.043
174.481     72.009    22.045
177.019     72.019    21.049
179.594     72.028    20.053
182.206     72.036    19.055
184.856     72.043    18.053
187.545     72.048    17.048
190.273     72.052    16.042
193.041     72.055    15.029
195.849     72.055    14.013
198.697     72.053    12.995
201.587     72.048    11.974
204.520     72.040    10.953
207.494     72.029     9.934
210.512     72.015     8.921
213.574     71.997     7.914
216.681     71.976     6.918
219.833     71.951     5.935
223.030     71.923     4.968
226.274     71.892     4.022
229.565     71.859     3.098
232.905     71.824     2.198
236.292     71.787     1.325
239.729     71.750     0.477
243.216     71.713    -0.343
246.754     71.677    -1.138
250.343     71.642    -1.910
253.984     71.610    -2.660
257.678     71.579    -3.394
261.426     71.553    -4.118
265.229     71.529    -4.837
269.087     71.509    -5.557
273.001     71.493    -6.285
276.972     71.478    -7.026
281.000     71.466    -7.783
285.088     71.455    -8.561
289.234     71.444    -9.362
293.441     71.432   -10.185
297.709     71.417   -11.030
302.040     71.398   -11.891
306.433     71.375   -12.762
310.890     71.346   -13.637
315.412     71.310   -14.507
320.000     71.269   -15.362
324.655     71.221   -16.193
329.377     71.167   -16.991
334.168     71.108   -17.748
339.028     71.045   -18.457
343.959     70.981   -19.114
348.962     70.916   -19.714
354.038     70.852   -20.258
359.188     70.792   -20.746
364.412     70.736   -21.182
369.713     70.686   -21.572
375.090     70.645   -21.925
380.546     70.612   -22.253
386.081     70.590   -22.568
391.697     70.578   -22.884
397.394     70.577   -23.214
403.175     70.585   -23.573
409.039     70.603   -23.970
414.989     70.628   -24.417
421.025     70.659   -24.922
427.149     70.694   -25.487
433.362     70.730   -26.116
439.665     70.767   -26.805
446.060     70.803   -27.550
452.548     70.837   -28.346
459.131     70.867   -29.188
465.809     70.894   -30.071
472.584     70.919   -30.994
479.458     70.940   -31.957
486.432     70.960   -32.963
493.507     70.977   -34.017
500.686     70.992   -35.127
507.968     71.002   -36.299
515.357     71.005   -37.534
522.853     70.997   -38.826
530.458     70.977   -40.153
538.174     70.940   -41.486
546.002     70.885   -42.780
553.943     70.812   -43.987
562.001     70.724   -45.063
570.175     70.625   -45.976
578.469     70.521   -46.709
586.883     70.420   -47.269
595.419     70.328   -47.685
604.080     70.252   -47.999
612.866     70.196   -48.264
621.780     70.162   -48.539
630.824     70.148   -48.869
640.000     70.150   -49.289
649.309     70.162   -49.811
658.753     70.177   -50.428
668.335     70.191   -51.108
678.056     70.203   -51.816
687.919     70.214   -52.514
697.925     70.229   -53.188
708.077     70.254   -53.843
718.376     70.292   -54.514
728.825     70.345   -55.251
739.426     70.408   -56.105
750.181     70.473   -57.106
761.093     70.532   -58.256
772.163     70.575   -59.523
783.394     70.598   -60.844
794.789     70.601   -62.153
806.349     70.590   -63.389
818.078     70.573   -64.518
829.977     70.558   -65.543
842.050     70.554   -66.492
854.298     70.563   -67.406
866.724     70.586   -68.317
879.330     70.622   -69.245
892.120     70.669   -70.196
905.097     70.730   -71.181
918.262     70.806   -72.233
931.618     70.901   -73.420
945.169     71.010   -74.837
958.917     71.122   -76.576
972.864     71.219   -78.683
987.015     71.281   -81.134
1001.37     71.293   -83.827
1015.94     71.249   -86.610
1030.71     71.151   -89.311
1045.71     71.014   -91.767
1060.92     70.854   -93.863
1076.35     70.689   -95.537
1092.00     70.532   -96.784
1107.89     70.398   -97.655
1124.00     70.293   -98.262
1140.35     70.220   -98.728
1156.94     70.177   -99.187
1173.77     70.156   -99.743
1190.84     70.146  -100.445
1208.16     70.142  -101.318
1225.73     70.139  -102.365
1243.56     70.137  -103.575
1261.65     70.138  -104.961
1280.00     70.135  -106.520
1298.62     70.124  -108.239
1317.51     70.094  -110.082
1336.67     70.037  -111.940
1356.11     69.960  -113.651
1375.84     69.878  -115.085
1395.85     69.811  -116.172
1416.15     69.779  -116.955
1436.75     69.782  -117.571
1457.65     69.808  -118.165
1478.85     69.840  -118.846
1500.36     69.865  -119.665
1522.19     69.880  -120.646
1544.33     69.889  -121.802
1566.79     69.901  -123.165
1589.58     69.913  -124.776
1612.70     69.912  -126.661
1636.16     69.877  -128.841
1659.95     69.784  -131.231
1684.10     69.624  -133.662
1708.60     69.409  -135.913
1733.45     69.168  -137.744
1758.66     68.952  -139.061
1784.24     68.793  -139.944
1810.19     68.696  -140.592
1836.52     68.644  -141.180
1863.24     68.610  -141.743
1890.34     68.585  -142.255
1917.83     68.576  -142.710
1945.73     68.594  -143.141
1974.03     68.648  -143.671
2002.74     68.730  -144.451
2031.87     68.812  -145.576
2061.43     68.861  -147.024
2091.41     68.852  -148.671
2121.83     68.776  -150.359
2152.69     68.628  -151.931
2184.01     68.419  -153.257
2215.77     68.164  -154.361
2248.00     67.860  -155.331
2280.70     67.496  -156.224
2313.87     67.044  -156.999
2347.53     66.461  -157.419
2381.68     65.715  -157.066
2416.32     64.802  -155.387
2451.46     63.770  -151.866
2487.12     62.741  -146.196
2523.30     61.896  -138.621
2560.00     61.388  -130.161
2597.24     61.252  -121.974
2635.01     61.425  -114.828
2673.34     61.814  -108.788
2712.23     62.364  -103.612
2751.68     63.039   -99.251
2791.70     63.807   -95.744
2832.31     64.633   -93.234
2873.50     65.469   -91.865
2915.30     66.278   -91.666
2957.70     67.037   -92.569
3000.72     67.722   -94.428
3044.37     68.317   -97.023
3088.65     68.803   -99.953
3133.58     69.177  -102.782
3179.16     69.457  -105.129
3225.40     69.664  -106.721
3272.31     69.818  -107.506
3319.91     69.941  -107.623
3368.20     70.043  -107.327
3417.19     70.124  -106.875
3466.89     70.184  -106.497
3517.32     70.213  -106.389
3568.48     70.201  -106.474
3620.39     70.146  -106.537
3673.05     70.063  -106.239
3726.47     69.988  -105.119
3780.67     69.991  -103.052
3835.67     70.140  -100.324
3891.46     70.452   -97.729
3948.06     70.881   -96.285
4005.49     71.322   -96.687
4063.75     71.662   -99.067
4122.86     71.818  -102.759
4182.82     71.748  -106.652
4243.66     71.458  -109.470
4305.39     71.012  -110.140
4368.01     70.495  -108.293
4431.55     70.021  -104.055
4496.01     69.699   -98.164
4561.40     69.585   -91.841
4627.75     69.656   -86.080
4695.06     69.851   -81.469
4763.35     70.114   -78.242
4832.64     70.397   -76.228
4902.93     70.670   -75.021
4974.24     70.923   -74.367
5046.60     71.135   -74.230
5120.00     71.258   -74.497
5194.47     71.260   -74.944
5270.03     71.151   -75.342
5346.68     70.967   -75.327
5424.45     70.766   -74.528
5503.35     70.607   -72.986
5583.40     70.505   -71.034
5664.61     70.405   -69.062
5747.01     70.206   -67.109
5830.60     69.871   -64.518
5915.41     69.464   -60.680
6001.45     69.072   -55.570
6088.74     68.762   -49.534
6177.30     68.572   -43.179
6267.15     68.507   -37.200
6358.31     68.526   -32.022
6450.80     68.583   -27.544
6544.62     68.649   -23.405
6639.82     68.719   -19.264
6736.40     68.807   -15.014
6834.38     68.921   -10.789
6933.79     69.061    -6.792
7034.64     69.214    -3.227
7136.96     69.352    -0.157
7240.77     69.457     2.566
7346.09     69.521     5.129
7452.94     69.543     7.706
7561.35     69.525    10.385
7671.33     69.467    13.155
7782.91     69.369    16.026
7896.12     69.229    19.119
8010.97     69.058    22.577
8127.49     68.866    26.467
8245.71     68.654    30.860
8365.65     68.427    35.825
8487.33     68.199    41.409
8610.78     67.988    47.731
8736.03     67.825    54.690
8863.09     67.723    61.823
8992.01     67.652    68.604
9122.80     67.562    74.710
9255.50     67.424    80.270
9390.12     67.247    85.876
9526.70     67.081    92.111
9665.27     66.972    99.099
9805.86     66.921   106.519
9948.49     66.897   113.932
10093.2     66.859   121.148
10240.0     66.788   128.445
10388.9     66.717   136.285
10540.1     66.699   144.911
10693.4     66.774   154.187
10848.9     66.936   163.505
11006.7     67.134   172.199
11166.8     67.318  -179.995
11329.2     67.473  -172.975
11494.0     67.625  -166.458
11661.2     67.811  -160.326
11830.8     68.037  -154.758
12002.9     68.273  -149.926
12177.5     68.470  -145.736
12354.6     68.592  -141.725
12534.3     68.631  -137.268
12716.6     68.598  -131.970
12901.6     68.508  -125.713
13089.2     68.368  -118.490
13279.6     68.199  -110.263
13472.8     68.035  -100.982
13668.8     67.910   -90.739
13867.6     67.838   -79.945
14069.3     67.801   -69.301
14273.9     67.749   -59.328
14481.5     67.641   -50.123
14692.2     67.479   -41.354
14905.9     67.309   -32.524
15122.7     67.173   -23.324
15342.7     67.091   -13.607
15565.8     67.064    -3.461
15792.2     67.074     6.956
16021.9     67.101    17.571
16255.0     67.130    28.149
16491.4     67.140    38.420
16731.3     67.101    48.272
16974.7     66.994    57.830
17221.6     66.829    67.406
17472.1     66.625    77.332
17726.2     66.406    87.912
17984.0     66.191    99.209
18245.6     65.984   111.240
18511.0     65.788   124.035
18780.2     65.618   137.586
19053.4     65.517   151.816
19330.5     65.518   166.395
19611.7     65.619  -179.161
19897.0     65.786  -165.211
20186.4     65.961  -152.308
20480.0     66.052  -140.296
20777.9     65.986  -128.736
21080.1     65.718  -117.131
21386.7     65.241  -104.313
21697.8     64.605   -89.847
22013.4     63.846   -73.627
22333.6     63.000   -55.625
22658.4     62.056   -37.489
22988.0     60.811   -19.591
23322.4     59.331    -2.930
23661.6     57.713    11.193
