Freq[Hz]     dBSPL  Phase[Deg]
5.00000     24.031  -116.260
5.07273     24.087  -117.265
5.14651     24.158  -118.572
5.22137     24.254  -120.328
5.29732     24.360  -122.268
5.37437     24.478  -124.415
5.45254     24.595  -126.563
5.53185     24.712  -128.711
5.61231     24.835  -130.830
5.69394     24.969  -132.885
5.77676     25.132  -134.781
5.86079     25.334  -136.455
5.94604     25.575  -137.907
6.03252     25.854  -139.138
6.12027     26.157  -140.213
6.20929     26.471  -141.225
6.29961     26.788  -142.210
6.39124     27.106  -143.196
6.48420     27.423  -144.181
6.57851     27.741  -145.167
6.67420     28.058  -146.153
6.77128     28.376  -147.140
6.86977     28.693  -148.126
6.96969     29.011  -149.113
7.07107     29.328  -150.100
7.17392     29.645  -151.087
7.27827     29.963  -152.075
7.38413     30.280  -153.062
7.49154     30.598  -154.050
7.60050     30.915  -155.038
7.71105     31.233  -156.026
7.82321     31.550  -157.015
7.93701     31.868  -158.004
8.05245     32.185  -158.993
8.16958     32.503  -159.982
8.28841     32.820  -160.971
8.40896     33.137  -161.954
8.53128     33.451  -162.918
8.65537     33.761  -163.838
8.78126     34.064  -164.694
8.90899     34.360  -165.486
9.03857     34.649  -166.212
9.17004     34.935  -166.891
9.30342     35.218  -167.550
9.43874     35.500  -168.200
9.57603     35.783  -168.850
9.71532     36.065  -169.501
9.85663     36.347  -170.151
10.0000     36.630  -170.803
10.1455     36.912  -171.454
10.2930     37.194  -172.106
10.4427     37.477  -172.758
10.5946     37.759  -173.410
10.7487     38.041  -174.063
10.9051     38.324  -174.716
11.0637     38.606  -175.369
11.2246     38.888  -176.022
11.3879     39.169  -176.672
11.5535     39.447  -177.317
11.7216     39.721  -177.955
11.8921     39.992  -178.584
12.0650     40.260  -179.206
12.2405     40.525  -179.822
12.4186     40.790   179.563
12.5992     41.054   178.950
12.7825     41.318   178.335
12.9684     41.582   177.721
13.1570     41.846   177.106
13.3484     42.111   176.490
13.5426     42.375   175.875
13.7395     42.639   175.258
13.9394     42.903   174.641
14.1421     43.166   174.023
14.3478     43.427   173.401
14.5565     43.685   172.774
14.7683     43.941   172.142
14.9831     44.193   171.503
15.2010     44.442   170.860
15.4221     44.690   170.214
15.6464     44.938   169.566
15.8740     45.185   168.917
16.1049     45.432   168.268
16.3392     45.680   167.619
16.5768     45.927   166.969
16.8179     46.174   166.318
17.0626     46.421   165.667
17.3107     46.668   165.015
17.5625     46.913   164.362
17.8180     47.158   163.708
18.0771     47.402   163.054
18.3401     47.646   162.398
18.6068     47.889   161.742
18.8775     48.132   161.085
19.1521     48.375   160.427
19.4306     48.618   159.769
19.7133     48.861   159.109
20.0000     49.103   158.445
20.2909     49.344   157.775
20.5860     49.584   157.098
20.8855     49.822   156.412
21.1893     50.059   155.719
21.4975     50.295   155.022
21.8102     50.531   154.321
22.1274     50.767   153.620
22.4492     51.002   152.917
22.7758     51.237   152.211
23.1071     51.471   151.501
23.4432     51.704   150.783
23.7841     51.936   150.058
24.1301     52.166   149.326
24.4811     52.396   148.588
24.8372     52.625   147.848
25.1984     52.854   147.106
25.5649     53.082   146.361
25.9368     53.310   145.611
26.3141     53.536   144.853
26.6968     53.761   144.088
27.0851     53.984   143.314
27.4791     54.207   142.534
27.8788     54.429   141.751
28.2843     54.650   140.964
28.6957     54.871   140.173
29.1131     55.091   139.375
29.5365     55.310   138.570
29.9661     55.528   137.757
30.4020     55.745   136.938
30.8442     55.961   136.114
31.2929     56.177   135.286
31.7480     56.392   134.451
32.2098     56.605   133.610
32.6783     56.818   132.760
33.1536     57.029   131.902
33.6359     57.240   131.038
34.1251     57.449   130.169
34.6215     57.658   129.293
35.1250     57.865   128.411
35.6359     58.072   127.521
36.1543     58.277   126.624
36.6802     58.481   125.720
37.2137     58.684   124.810
37.7550     58.886   123.892
38.3041     59.087   122.967
38.8613     59.287   122.033
39.4265     59.485   121.091
40.0000     59.683   120.142
40.5818     59.879   119.186
41.1721     60.074   118.222
41.7710     60.268   117.250
42.3785     60.461   116.270
42.9949     60.652   115.283
43.6203     60.842   114.287
44.2548     61.030   113.284
44.8985     61.218   112.273
45.5515     61.404   111.253
46.2141     61.589   110.223
46.8863     61.772   109.184
47.5683     61.955   108.135
48.2602     62.136   107.076
48.9621     62.317   106.006
49.6743     62.497   104.925
50.3968     62.677   103.834
51.1299     62.856   102.732
51.8736     63.033   101.619
52.6281     63.210   100.495
53.3936     63.384    99.362
54.1702     63.558    98.218
54.9581     63.729    97.064
55.7575     63.899    95.900
56.5685     64.067    94.727
57.3914     64.234    93.546
58.2261     64.399    92.356
59.0730     64.562    91.159
59.9323     64.723    89.954
60.8040     64.882    88.743
61.6884     65.039    87.523
62.5857     65.194    86.297
63.4960     65.347    85.061
64.4196     65.497    83.816
65.3566     65.645    82.561
66.3073     65.791    81.293
67.2717     65.934    80.013
68.2502     66.074    78.720
69.2429     66.212    77.413
70.2501     66.347    76.092
71.2719     66.481    74.757
72.3086     66.612    73.409
73.3603     66.741    72.048
74.4274     66.869    70.675
75.5099     66.995    69.292
76.6083     67.120    67.900
77.7226     67.243    66.500
78.8531     67.364    65.093
80.0000     67.482    63.680
81.1636     67.599    62.260
82.3442     67.712    60.833
83.5419     67.823    59.398
84.7570     67.931    57.955
85.9899     68.037    56.504
87.2406     68.139    55.043
88.5096     68.239    53.573
89.7970     68.336    52.094
91.1031     68.430    50.604
92.4282     68.522    49.101
93.7726     68.611    47.587
95.1366     68.699    46.062
96.5204     68.786    44.528
97.9243     68.870    42.991
99.3486     68.952    41.454
100.794     69.032    39.917
102.260     69.107    38.378
103.747     69.178    36.832
105.256     69.246    35.272
106.787     69.311    33.698
108.340     69.375    32.111
109.916     69.438    30.517
111.515     69.499    28.922
113.137     69.557    27.327
114.783     69.612    25.732
116.452     69.664    24.132
118.146     69.712    22.522
119.865     69.757    20.902
121.608     69.800    19.273
123.377     69.842    17.637
125.171     69.882    16.001
126.992     69.919    14.366
128.839     69.954    12.734
130.713     69.986    11.103
132.615     70.016     9.473
134.543     70.042     7.844
136.500     70.067     6.220
138.486     70.089     4.603
140.500     70.108     2.994
142.544     70.125     1.392
144.617     70.139    -0.203
146.721     70.152    -1.793
148.855     70.163    -3.376
151.020     70.174    -4.950
153.217     70.183    -6.517
155.445     70.191    -8.079
157.706     70.198    -9.636
160.000     70.205   -11.191
162.327     70.211   -12.743
164.688     70.216   -14.295
167.084     70.221   -15.848
169.514     70.225   -17.401
171.980     70.229   -18.959
174.481     70.233   -20.522
177.019     70.237   -22.089
179.594     70.240   -23.663
182.206     70.242   -25.245
184.856     70.244   -26.838
187.545     70.245   -28.441
190.273     70.245   -30.053
193.041     70.243   -31.677
195.849     70.240   -33.313
198.697     70.236   -34.960
201.587     70.231   -36.618
204.520     70.224   -38.286
207.494     70.215   -39.961
210.512     70.204   -41.644
213.574     70.192   -43.333
216.681     70.178   -45.027
219.833     70.162   -46.725
223.030     70.145   -48.426
226.274     70.127   -50.127
229.565     70.109   -51.829
232.905     70.092   -53.533
236.292     70.075   -55.241
239.729     70.060   -56.953
243.216     70.046   -58.674
246.754     70.034   -60.407
250.343     70.025   -62.157
253.984     70.018   -63.932
257.678     70.014   -65.739
261.426     70.014   -67.589
265.229     70.016   -69.491
269.087     70.022   -71.453
273.001     70.029   -73.483
276.972     70.035   -75.586
281.000     70.041   -77.769
285.088     70.042   -80.033
289.234     70.038   -82.381
293.441     70.025   -84.807
297.709     70.001   -87.305
302.040     69.963   -89.863
306.433     69.909   -92.467
310.890     69.838   -95.097
315.412     69.746   -97.732
320.000     69.634  -100.347
324.655     69.500  -102.919
329.377     69.346  -105.421
334.168     69.173  -107.830
339.028     68.982  -110.127
343.959     68.779  -112.297
348.962     68.566  -114.327
354.038     68.347  -116.207
359.188     68.124  -117.933
364.412     67.901  -119.507
369.713     67.680  -120.934
375.090     67.463  -122.230
380.546     67.254  -123.412
386.081     67.056  -124.502
391.697     66.872  -125.521
397.394     66.702  -126.490
403.175     66.549  -127.429
409.039     66.412  -128.354
414.989     66.291  -129.281
421.025     66.185  -130.221
427.149     66.093  -131.178
433.362     66.016  -132.158
439.665     65.953  -133.160
446.060     65.904  -134.182
452.548     65.870  -135.223
459.131     65.853  -136.284
465.809     65.853  -137.372
472.584     65.872  -138.502
479.458     65.912  -139.696
486.432     65.976  -140.991
493.507     66.063  -142.434
500.686     66.175  -144.082
507.968     66.308  -146.000
515.357     66.457  -148.249
522.853     66.614  -150.873
530.458     66.769  -153.893
538.174     66.907  -157.288
546.002     67.018  -160.993
553.943     67.091  -164.908
562.001     67.119  -168.906
570.175     67.102  -172.855
578.469     67.046  -176.641
586.883     66.958   179.813
595.419     66.850   176.539
604.080     66.736   173.521
612.866     66.624   170.700
621.780     66.522   167.993
630.824     66.433   165.312
640.000     66.357   162.580
649.309     66.288   159.744
658.753     66.220   156.787
668.335     66.147   153.725
678.056     66.065   150.600
687.919     65.975   147.467
697.925     65.881   144.371
708.077     65.791   141.338
718.376     65.710   138.359
728.825     65.644   135.397
739.426     65.594   132.391
750.181     65.554   129.283
761.093     65.519   126.024
772.163     65.480   122.584
783.394     65.428   118.960
794.789     65.361   115.164
806.349     65.276   111.215
818.078     65.174   107.140
829.977     65.058   102.962
842.050     64.927    98.718
854.298     64.781    94.464
866.724     64.615    90.278
879.330     64.428    86.263
892.120     64.221    82.526
905.097     64.006    79.147
918.262     63.799    76.141
931.618     63.623    73.434
945.169     63.494    70.848
958.917     63.416    68.137
972.864     63.378    65.055
987.015     63.357    61.405
1001.37     63.330    57.093
1015.94     63.279    52.127
1030.71     63.194    46.598
1045.71     63.070    40.671
1060.92     62.904    34.522
1076.35     62.691    28.346
1092.00     62.426    22.319
1107.89     62.113    16.552
1124.00     61.758    11.159
1140.35     61.374     6.231
1156.94     60.975     1.745
1173.77     60.564    -2.346
1190.84     60.147    -6.046
1208.16     59.735    -9.419
1225.73     59.338   -12.535
1243.56     58.984   -15.394
1261.65     58.699   -18.120
1280.00     58.488   -20.987
1298.62     58.342   -24.286
1317.51     58.232   -28.352
1336.67     58.119   -33.407
1356.11     57.969   -39.485
1375.84     57.749   -46.461
1395.85     57.436   -53.967
1416.15     57.024   -61.507
1436.75     56.511   -68.537
1457.65     55.922   -74.404
1478.85     55.324   -78.840
1500.36     54.792   -81.988
1522.19     54.397   -84.335
1544.33     54.156   -86.916
1566.79     54.043   -90.737
1589.58     53.974   -96.581
1612.70     53.847  -104.592
1636.16     53.638  -114.519
1659.95     53.304  -126.091
1684.10     52.828  -138.180
1708.60     52.274  -149.918
1733.45     51.652  -161.328
1758.66     50.988  -171.644
1784.24     50.385   178.865
1810.19     49.910   169.194
1836.52     49.615   159.015
1863.24     49.547   147.416
1890.34     49.735   134.134
1917.83     50.238   120.021
1945.73     51.055   106.478
1974.03     52.055    94.602
2002.74     53.061    84.716
2031.87     53.946    76.223
2061.43     54.655    68.191
2091.41     55.140    60.060
2121.83     55.436    51.667
2152.69     55.640    43.193
2184.01     55.816    34.900
2215.77     56.068    27.059
2248.00     56.454    19.628
2280.70     56.964    12.056
2313.87     57.556     3.906
2347.53     58.154    -5.106
2381.68     58.678   -14.951
2416.32     59.071   -25.119
2451.46     59.323   -35.066
2487.12     59.464   -44.389
2523.30     59.538   -52.945
2560.00     59.594   -60.877
2597.24     59.651   -68.484
2635.01     59.700   -76.047
2673.34     59.724   -83.609
2712.23     59.708   -91.010
2751.68     59.660   -97.981
2791.70     59.601  -104.374
2832.31     59.549  -110.162
2873.50     59.532  -115.434
2915.30     59.574  -120.478
2957.70     59.687  -125.534
3000.72     59.873  -130.932
3044.37     60.131  -137.164
3088.65     60.425  -144.735
3133.58     60.693  -153.779
3179.16     60.888  -163.975
3225.40     60.989  -174.821
3272.31     60.978   174.270
3319.91     60.852   163.678
3368.20     60.608   153.509
3417.19     60.235   143.987
3466.89     59.720   135.617
3517.32     59.089   128.840
3568.48     58.378   123.832
3620.39     57.628   120.600
3673.05     56.895   118.821
3726.47     56.244   118.143
3780.67     55.770   118.311
3835.67     55.610   118.791
3891.46     55.850   118.344
3948.06     56.423   115.222
4005.49     57.129   108.162
4063.75     57.750    96.810
4122.86     58.121    82.313
4182.82     58.168    66.604
4243.66     57.866    51.495
4305.39     57.237    38.643
4368.01     56.334    28.786
4431.55     55.202    22.335
4496.01     53.893    19.564
4561.40     52.507    21.163
4627.75     51.342    28.575
4695.06     50.965    40.342
4763.35     51.652    51.709
4832.64     53.014    58.312
4902.93     54.457    58.356
4974.24     55.704    52.326
5046.60     56.683    40.872
5120.00     57.360    24.869
5194.47     57.731     6.415
5270.03     57.815   -12.384
5346.68     57.653   -29.871
5424.45     57.305   -45.118
5503.35     56.833   -57.786
5583.40     56.292   -68.072
5664.61     55.677   -76.622
5747.01     54.941   -83.604
5830.60     54.094   -89.004
5915.41     53.193   -92.658
6001.45     52.373   -94.282
6088.74     51.802   -94.697
6177.30     51.553   -95.197
6267.15     51.599   -97.298
6358.31     51.807  -102.734
6450.80     52.020  -112.092
6544.62     52.100  -124.640
6639.82     52.000  -139.167
6736.40     51.766  -156.491
6834.38     51.433  -179.830
6933.79     51.029   151.912
7034.64     50.598   113.582
7136.96     50.164    81.619
7240.77     49.784    50.577
7346.09     49.564    13.489
7452.94     49.624   -15.153
7561.35     50.036   -44.940
7671.33     50.767   -81.615
7782.91     51.689  -110.318
7896.12     52.650  -136.315
8010.97     53.536  -157.177
8127.49     54.281  -176.338
8245.71     54.903   165.307
8365.65     55.434   147.728
8487.33     55.899   130.906
8610.78     56.281   114.348
8736.03     56.519    97.505
8863.09     56.558    80.437
8992.01     56.387    63.732
9122.80     56.045    48.433
9255.50     55.632    35.321
9390.12     55.260    24.256
9526.70     55.022    14.261
9665.27     54.938     3.501
9805.86     54.911   -11.183
9948.49     54.804   -32.718
10093.2     54.522   -65.693
10240.0     54.048  -112.697
10388.9     53.491  -171.661
10540.1     52.990   120.624
10693.4     52.662    52.584
10848.9     52.523    -6.894
11006.7     52.485   -54.559
11166.8     52.455   -88.756
11329.2     52.412  -112.133
11494.0     52.401  -129.810
11661.2     52.487  -145.030
11830.8     52.700  -160.435
12002.9     53.016  -177.409
12177.5     53.347   163.322
12354.6     53.596   141.643
12534.3     53.697   117.623
12716.6     53.612    89.319
12901.6     53.306    59.992
13089.2     52.781    29.833
13279.6     52.062    13.033
13472.8     51.221    20.769
13668.8     50.394    43.453
13867.6     49.729    90.380
14069.3     49.331   142.754
14273.9     49.203  -165.807
14481.5     49.250  -116.845
14692.2     49.352   -89.209
14905.9     49.415   -74.510
15122.7     49.383   -77.120
15342.7     49.227  -113.381
15565.8     48.955  -164.565
15792.2     48.589   131.846
16021.9     48.128    78.655
16255.0     47.601    43.451
16491.4     47.062    27.784
16731.3     46.534    32.589
16974.7     46.040    55.149
17221.6     45.592    71.488
17472.1     45.163    86.837
17726.2     44.709    96.164
17984.0     44.228   101.514
18245.6     43.736   111.003
18511.0     43.264   122.108
18780.2     42.841   135.958
19053.4     42.478   158.452
19330.5     42.079   174.298
19611.7     41.606  -169.670
19897.0     40.898  -164.541
20186.4     40.162  -157.557
20480.0     39.648  -151.894
20777.9     39.122  -163.353
21080.1     38.940  -168.556
21386.7     39.063  -179.391
21697.8     38.645   164.328
22013.4     38.202   154.417
22333.6     37.530   140.221
22658.4     36.268   130.274
22988.0     34.971   121.672
23322.4     33.409   113.181
23661.6     31.358   117.916
