Freq[Hz]     dBSPL  Phase[Deg]
5.00000    -11.567   158.254
5.07273    -14.063   160.044
5.14651    -15.261   147.981
5.22137    -12.838    97.231
5.29732    -10.415    46.480
5.37437     -7.992    -4.271
5.45254     -5.569   -55.021
5.53185     -3.648   -82.801
5.61231     -2.258   -86.283
5.69394     -0.868   -89.765
5.77676      0.522   -93.247
5.86079      1.895   -96.750
5.94604      2.280  -101.494
6.03252      2.664  -106.238
6.12027      3.049  -110.982
6.20929      3.433  -115.725
6.29961      3.061  -121.208
6.39124      2.521  -126.854
6.48420      1.981  -132.500
6.57851      1.440  -138.146
6.67420     -1.554  -148.405
6.77128     -4.947  -159.413
6.86977     -8.339  -170.422
6.96969    -10.958   174.297
7.07107     -7.689   126.514
7.17392     -4.419    78.730
7.27827     -1.150    30.947
7.38413      1.368     5.844
7.49154      3.306    -1.737
7.60050      5.244    -9.318
7.71105      6.925   -16.847
7.82321      7.482   -24.149
7.93701      8.039   -31.451
8.05245      8.596   -38.753
8.16958      7.901   -46.826
8.28841      7.160   -54.929
8.40896      6.419   -63.031
8.53128      1.365   -89.262
8.65537     -4.245  -117.831
8.78126     -9.855  -146.401
8.90899     -3.706   -70.553
9.03857      3.214    12.137
9.17004      9.636    84.599
9.30342     12.103    75.649
9.43874     14.569    66.700
9.57603     16.540    58.091
9.71532     17.752    50.003
9.85663     18.964    41.915
10.0000     19.486    34.377
10.1455     19.815    26.992
10.2930     19.897    20.162
10.4427     19.284    14.880
10.5946     18.672     9.598
10.7487     17.147    12.288
10.9051     15.440    16.569
11.0637     15.004    29.205
11.2246     15.915    50.678
11.3879     17.231    67.956
11.5535     20.030    69.941
11.7216     22.810    71.792
11.8921     24.559    65.745
12.0650     26.307    59.698
12.2405     27.356    51.903
12.4186     28.315    43.882
12.5992     28.734    35.609
12.7825     29.033    27.279
12.9684     28.773    19.777
13.1570     28.384    12.468
13.3484     27.289     8.566
13.5426     26.080     5.218
13.7395     24.555    13.941
13.9394     23.344    24.003
14.1421     24.616    40.717
14.3478     26.233    52.685
14.5565     28.593    54.447
14.7683     30.516    52.278
14.9831     32.100    47.072
15.2010     33.047    40.484
15.4221     33.768    33.809
15.6464     33.976    27.791
15.8740     33.911    23.500
16.1049     33.627    20.588
16.3392     33.291    23.126
16.5768     33.293    27.616
16.8179     33.790    34.648
17.0626     35.117    39.129
17.3107     36.593    41.265
17.5625     38.135    40.330
17.8180     39.376    36.743
18.0771     40.407    32.607
18.3401     41.225    28.178
18.6068     41.789    24.285
18.8775     42.249    21.356
19.1521     42.685    19.254
19.4306     43.146    17.933
19.7133     43.724    17.028
20.0000     44.376    15.790
20.2909     45.043    14.096
20.5860     45.679    11.957
20.8855     46.241     9.552
21.1893     46.701     7.354
21.4975     47.121     5.706
21.8102     47.564     4.607
22.1274     48.079     3.846
22.4492     48.687     3.052
22.7758     49.371     1.822
23.1071     50.079    -0.071
23.4432     50.746    -2.567
23.7841     51.334    -5.371
24.1301     51.846    -8.097
24.4811     52.315   -10.503
24.8372     52.783   -12.519
25.1984     53.288   -14.258
25.5649     53.847   -15.937
25.9368     54.449   -17.767
26.3141     55.069   -19.852
26.6968     55.684   -22.170
27.0851     56.276   -24.615
27.4791     56.842   -27.058
27.8788     57.392   -29.402
28.2843     57.939   -31.628
28.6957     58.494   -33.777
29.1131     59.061   -35.923
29.5365     59.632   -38.130
29.9661     60.199   -40.422
30.4020     60.755   -42.776
30.8442     61.294   -45.147
31.2929     61.823   -47.511
31.7480     62.347   -49.880
32.2098     62.864   -52.285
32.6783     63.372   -54.742
33.1536     63.866   -57.221
33.6359     64.352   -59.684
34.1251     64.836   -62.116
34.6215     65.326   -64.550
35.1250     65.824   -67.044
35.6359     66.329   -69.667
36.1543     66.830   -72.418
36.6802     67.322   -75.268
37.2137     67.802   -78.165
37.7550     68.277   -81.077
38.3041     68.753   -84.030
38.8613     69.229   -87.057
39.4265     69.699   -90.180
40.0000     70.163   -93.375
40.5818     70.621   -96.657
41.1721     71.067  -100.070
41.7710     71.486  -103.593
42.3785     71.867  -107.101
42.9949     72.225  -110.440
43.6203     72.588  -113.605
44.2548     72.970  -116.735
44.8985     73.363  -119.970
45.5515     73.749  -123.311
46.2141     74.127  -126.717
46.8863     74.493  -130.168
47.5683     74.851  -133.661
48.2602     75.203  -137.198
48.9621     75.552  -140.822
49.6743     75.889  -144.554
50.3968     76.208  -148.345
51.1299     76.512  -152.129
51.8736     76.810  -155.909
52.6281     77.101  -159.712
53.3936     77.378  -163.523
54.1702     77.642  -167.331
54.9581     77.889  -171.152
55.7575     78.112  -174.995
56.5685     78.311  -178.867
57.3914     78.483   177.207
58.2261     78.623   173.234
59.0730     78.735   169.288
59.9323     78.841   165.406
60.8040     78.956   161.509
61.6884     79.071   157.572
62.5857     79.187   153.696
63.4960     79.308   149.874
64.4196     79.413   146.096
65.3566     79.490   142.488
66.3073     79.547   139.021
67.2717     79.570   135.653
68.2502     79.567   132.453
69.2429     79.563   129.332
70.2501     79.564   126.133
71.2719     79.560   122.862
72.3086     79.555   119.557
73.3603     79.536   116.234
74.4274     79.490   113.043
75.5099     79.427   110.091
76.6083     79.349   107.340
77.7226     79.271   104.830
78.8531     79.217   102.382
80.0000     79.180    99.854
81.1636     79.149    97.273
82.3442     79.125    94.698
83.5419     79.099    92.146
84.7570     79.054    89.712
85.9899     79.004    87.425
87.2406     78.950    85.175
88.5096     78.893    82.859
89.7970     78.822    80.451
91.1031     78.735    77.970
92.4282     78.610    75.575
93.7726     78.465    73.588
95.1366     78.351    71.949
96.5204     78.257    70.377
97.9243     78.178    68.944
99.3486     78.132    67.487
100.794     78.102    65.952
102.260     78.084    64.328
103.747     78.066    62.677
105.256     78.044    61.004
106.787     78.017    59.266
108.340     77.955    57.446
109.916     77.856    55.854
111.515     77.787    54.664
113.137     77.767    53.449
114.783     77.763    52.152
116.452     77.755    50.850
118.146     77.754    49.514
119.865     77.760    48.148
121.608     77.771    46.798
123.377     77.789    45.408
125.171     77.805    44.038
126.992     77.807    42.527
128.839     77.811    40.923
130.713     77.804    39.175
132.615     77.777    37.546
134.543     77.759    36.141
136.500     77.756    34.746
138.486     77.746    33.387
140.500     77.737    31.934
142.544     77.728    30.176
144.617     77.661    28.782
146.721     77.629    27.958
148.855     77.690    26.822
151.020     77.748    25.028
153.217     77.723    23.021
155.445     77.651    21.461
157.706     77.593    19.945
160.000     77.450    18.743
162.327     77.397    18.257
164.688     77.422    17.507
167.084     77.556    16.643
169.514     77.647    13.543
171.980     77.314    11.479
174.481     77.155    11.634
177.019     77.161    11.387
179.594     77.184    10.813
182.206     77.192    10.145
184.856     77.241     9.894
187.545     77.366     9.279
190.273     77.544     8.062
193.041     77.703     6.196
195.849     77.760     4.377
198.697     77.801     2.661
201.587     77.875     0.546
204.520     77.806    -1.966
207.494     77.666    -3.737
210.512     77.535    -4.524
213.574     77.515    -5.790
216.681     77.484    -6.851
219.833     77.373    -8.251
223.030     77.301    -8.976
226.274     77.198    -9.896
229.565     77.198    -9.855
232.905     77.273   -10.589
236.292     77.325   -11.381
239.729     77.428   -12.154
243.216     77.541   -13.625
246.754     77.574   -14.980
250.343     77.612   -16.296
253.984     77.713   -17.734
257.678     77.742   -19.837
261.426     77.696   -21.881
265.229     77.659   -24.612
269.087     77.262   -25.768
273.001     77.167   -25.188
276.972     77.265   -25.916
281.000     77.276   -27.032
285.088     77.260   -28.057
289.234     77.256   -29.143
293.441     77.336   -30.365
297.709     77.324   -32.306
302.040     77.318   -34.849
306.433     76.955   -36.170
310.890     76.978   -36.378
315.412     76.985   -38.828
320.000     76.773   -41.122
324.655     76.375   -41.954
329.377     76.325   -41.521
334.168     76.254   -42.846
339.028     76.182   -43.134
343.959     76.177   -43.879
348.962     76.186   -44.787
354.038     76.178   -45.782
359.188     76.275   -47.157
364.412     76.194   -49.538
369.713     76.081   -50.023
375.090     76.183   -51.279
380.546     76.245   -53.201
386.081     76.209   -54.891
391.697     76.199   -56.932
397.394     76.299   -58.814
403.175     76.154   -62.057
409.039     76.063   -63.532
414.989     76.048   -65.487
421.025     76.063   -67.508
427.149     76.035   -69.772
433.362     76.036   -71.684
439.665     76.132   -74.174
446.060     76.027   -77.266
452.548     76.028   -79.738
459.131     75.960   -82.218
465.809     76.010   -84.641
472.584     75.946   -87.868
479.458     75.886   -90.328
486.432     75.867   -93.142
493.507     75.787   -96.100
500.686     75.707   -98.837
507.968     75.644  -101.499
515.357     75.576  -104.101
522.853     75.500  -106.667
530.458     75.418  -109.105
538.174     75.339  -111.463
546.002     75.270  -113.682
553.943     75.197  -115.770
562.001     75.117  -117.745
570.175     75.052  -119.634
578.469     74.981  -121.469
586.883     74.914  -123.279
595.419     74.860  -125.042
604.080     74.809  -126.803
612.866     74.765  -128.566
621.780     74.724  -130.360
630.824     74.693  -132.204
640.000     74.676  -134.072
649.309     74.661  -135.898
658.753     74.649  -137.885
668.335     74.651  -139.928
678.056     74.648  -142.093
687.919     74.657  -144.309
697.925     74.661  -146.608
708.077     74.661  -149.004
718.376     74.662  -151.488
728.825     74.649  -154.067
739.426     74.636  -156.776
750.181     74.614  -159.528
761.093     74.577  -162.367
772.163     74.528  -165.279
783.394     74.469  -168.198
794.789     74.390  -171.225
806.349     74.297  -174.266
818.078     74.186  -177.340
829.977     74.062   179.581
842.050     73.914   176.518
854.298     73.746   173.501
866.724     73.558   170.497
879.330     73.356   167.576
892.120     73.127   164.759
905.097     72.885   162.058
918.262     72.629   159.561
931.618     72.364   157.288
945.169     72.103   155.270
958.917     71.857   153.503
972.864     71.629   152.073
987.015     71.453   150.837
1001.37     71.322   149.751
1015.94     71.270   148.736
1030.71     71.291   147.646
1045.71     71.383   146.246
1060.92     71.540   144.418
1076.35     71.733   142.078
1092.00     71.945   139.153
1107.89     72.156   135.665
1124.00     72.335   131.566
1140.35     72.474   126.948
1156.94     72.558   121.873
1173.77     72.578   116.450
1190.84     72.526   110.813
1208.16     72.395   105.045
1225.73     72.188    99.188
1243.56     71.907    93.323
1261.65     71.560    87.631
1280.00     71.165    82.187
1298.62     70.740    77.046
1317.51     70.295    72.150
1336.67     69.859    67.508
1356.11     69.452    62.972
1375.84     69.084    58.434
1395.85     68.753    53.653
1416.15     68.461    48.525
1436.75     68.179    42.946
1457.65     67.899    36.823
1478.85     67.598    30.223
1500.36     67.270    23.229
1522.19     66.911    15.835
1544.33     66.542     8.162
1566.79     66.167     0.333
1589.58     65.803    -7.811
1612.70     65.494   -16.024
1636.16     65.232   -24.463
1659.95     65.041   -33.062
1684.10     64.898   -41.741
1708.60     64.822   -50.502
1733.45     64.795   -58.927
1758.66     64.819   -67.089
1784.24     64.914   -74.664
1810.19     65.094   -81.554
1836.52     65.373   -87.905
1863.24     65.755   -93.897
1890.34     66.239   -99.762
1917.83     66.776  -105.677
1945.73     67.330  -111.729
1974.03     67.852  -117.920
2002.74     68.338  -124.006
2031.87     68.775  -129.848
2061.43     69.171  -135.284
2091.41     69.554  -140.303
2121.83     69.948  -145.016
2152.69     70.364  -149.426
2184.01     70.819  -153.824
2215.77     71.293  -158.327
2248.00     71.774  -163.137
2280.70     72.229  -168.296
2313.87     72.628  -173.817
2347.53     72.934  -179.574
2381.68     73.127   174.729
2416.32     73.207   169.376
2451.46     73.212   164.687
2487.12     73.192   160.736
2523.30     73.213   157.409
2560.00     73.286   154.335
2597.24     73.390   151.249
2635.01     73.483   148.217
2673.34     73.565   145.503
2712.23     73.689   143.264
2751.68     73.925   141.187
2791.70     74.286   138.634
2832.31     74.691   135.107
2873.50     75.040   130.602
2915.30     75.271   125.528
2957.70     75.380   120.287
3000.72     75.385   115.117
3044.37     75.295   110.090
3088.65     75.101   105.268
3133.58     74.807   100.973
3179.16     74.448    97.398
3225.40     74.062    94.522
3272.31     73.652    92.215
3319.91     73.188    90.768
3368.20     72.734    90.904
3417.19     72.496    92.651
3466.89     72.608    94.633
3517.32     72.958    95.341
3568.48     73.359    94.808
3620.39     73.794    93.634
3673.05     74.318    91.495
3726.47     74.837    87.693
3780.67     75.179    82.404
3835.67     75.267    76.593
3891.46     75.143    71.017
3948.06     74.855    65.782
4005.49     74.365    61.138
4063.75     73.666    57.943
4122.86     72.920    57.207
4182.82     72.359    58.647
4243.66     72.097    61.285
4305.39     72.223    64.221
4368.01     72.753    65.508
4431.55     73.387    63.537
4496.01     73.746    59.074
4561.40     73.732    54.074
4627.75     73.412    49.716
4695.06     72.821    46.894
4763.35     72.117    47.188
4832.64     71.757    50.616
4902.93     71.959    54.314
4974.24     72.557    56.439
5046.60     73.427    55.729
5120.00     74.192    51.166
5194.47     74.493    44.695
5270.03     74.421    38.548
5346.68     74.079    32.816
5424.45     73.377    28.625
5503.35     72.618    27.666
5583.40     72.066    28.380
5664.61     71.661    30.931
5747.01     71.845    34.440
5830.60     72.384    34.728
5915.41     72.862    32.810
6001.45     73.256    28.424
6088.74     73.145    22.320
6177.30     72.559    17.548
6267.15     71.563    15.184
6358.31     70.546    19.285
6450.80     70.570    26.050
6544.62     71.217    30.291
6639.82     72.343    30.215
6736.40     73.119    24.405
6834.38     73.291    17.245
6933.79     72.814     9.860
7034.64     71.740     6.930
7136.96     70.867     9.143
7240.77     70.709    14.819
7346.09     71.460    16.728
7452.94     72.054    13.871
7561.35     72.313     8.244
7671.33     71.936     2.514
7782.91     71.168    -1.340
7896.12     70.160     0.060
8010.97     70.027     4.266
8127.49     70.375     5.508
8245.71     70.641     1.914
8365.65     70.172    -2.585
8487.33     69.148    -4.700
8610.78     68.250    -0.778
8736.03     68.096     3.621
8863.09     68.466     4.677
8992.01     68.467     1.315
9122.80     67.887    -2.697
9255.50     66.804    -2.026
9390.12     66.410     3.427
9526.70     67.187     4.460
9665.27     67.267    -2.908
9805.86     66.127    -8.778
9948.49     64.564    -6.270
10093.2     64.175     5.024
10240.0     65.525     8.384
10388.9     66.326     2.376
10540.1     65.713    -6.488
10693.4     63.791    -7.849
10848.9     62.788     5.523
11006.7     64.218    14.271
11166.8     65.307     8.282
11329.2     64.557     1.144
11494.0     63.122     7.391
11661.2     64.024    18.668
11830.8     65.627    14.035
12002.9     65.117     2.809
12177.5     62.691     7.205
12354.6     63.724    27.295
12534.3     66.223    22.479
12716.6     66.111    12.081
12901.6     65.354    13.591
13089.2     66.163    16.798
13279.6     66.936    10.510
13472.8     66.227     2.980
13668.8     65.181     7.340
13867.6     65.935    11.671
14069.3     66.399     7.690
14273.9     65.935     7.019
14481.5     66.551    12.815
14692.2     68.216     8.221
14905.9     68.277    -3.230
15122.7     67.854    -5.194
15342.7     68.668   -10.398
15565.8     68.392   -23.034
15792.2     67.046   -28.073
16021.9     66.885   -28.099
16255.0     66.948   -35.842
16491.4     66.270   -44.251
16731.3     65.667   -49.750
16974.7     65.231   -62.620
17221.6     63.070   -75.810
17472.1     60.802   -81.484
17726.2     58.757   -91.230
17984.0     55.146  -106.616
18245.6     46.744  -137.209
18511.0     39.784    72.265
18780.2     47.884    29.979
19053.4     52.923    32.297
19330.5     55.522     7.991
19611.7     53.798    -3.450
19897.0     54.406     1.137
20186.4     54.163   -15.392
20480.0     52.542   -10.641
20777.9     53.155   -25.898
21080.1     47.891   -33.750
21386.7     47.246   -20.153
21697.8     40.426    -5.633
22013.4     44.709    26.890
22333.6     40.335    50.566
22658.4     49.745    70.852
22988.0     49.915    47.067
23322.4     50.856    47.652
23661.6     50.686    38.489
24005.8     51.569    39.319
24355.0     52.249    26.058
24709.2     52.042    12.225
25068.6     50.652    -8.561
25433.2     47.196   -20.769
25803.2     42.543   -29.358
26178.5     35.592   -28.936
26559.3     30.258    33.213
26945.6     36.253   111.839
27337.5     44.783    57.206
27735.2     36.084    66.104
28138.6     41.545    88.278
28547.9     43.783    84.469
28963.1     44.548    73.172
29384.4     45.174    63.180
29811.8     43.878    53.582
30245.4     42.813    46.643
30685.3     41.442    44.217
31131.7     39.403    37.209
31584.5     36.114    32.469
32043.9     32.242    51.043
32510.0     32.394    70.309
32982.8     31.319    80.660
33462.6     33.042    80.489
33949.3     31.117    69.749
34443.1     25.662    70.024
34944.1     23.696    89.926
35452.4     22.305    61.638
35968.0     21.499  -153.768
36491.2     22.164  -177.392
37022.0     21.230   -57.339
37560.5     18.584   -55.537
38106.8     17.309   120.577
38661.1     16.680   -87.299
39223.4     23.327    18.222
39793.9     29.207   -75.208
