Freq[Hz]     dBSPL  Phase[Deg]
5.00000    -11.423  -144.811
5.07273    -13.919  -142.183
5.14651    -15.119  -153.392
5.22137    -12.697   156.755
5.29732    -10.276   106.903
5.37437     -7.855    57.051
5.45254     -5.434     7.198
5.53185     -3.515   -19.655
5.61231     -2.129   -22.180
5.69394     -0.742   -24.705
5.77676      0.645   -27.230
5.86079      2.014   -29.774
5.94604      2.395   -33.504
6.03252      2.775   -37.234
6.12027      3.155   -40.964
6.20929      3.535   -44.693
6.29961      3.157   -49.117
6.39124      2.612   -53.694
6.48420      2.066   -58.271
6.57851      1.520   -62.848
6.67420     -1.480   -71.993
6.77128     -4.880   -81.879
6.86977     -8.279   -91.765
6.96969    -10.904  -105.918
7.07107     -7.642  -152.528
7.17392     -4.379   160.862
7.27827     -1.117   114.253
7.38413      1.394    90.352
7.49154      3.325    83.995
7.60050      5.255    77.639
7.71105      6.930    71.343
7.82321      7.479    65.316
7.93701      8.029    59.289
8.05245      8.578    53.262
8.16958      7.877    46.512
8.28841      7.129    39.735
8.40896      6.381    32.957
8.53128      1.321     8.098
8.65537     -4.295   -19.095
8.78126     -9.912   -46.288
8.90899     -3.767    30.987
9.03857      3.148   115.107
9.17004      9.566  -170.995
9.30342     12.029  -178.460
9.43874     14.492   174.076
9.57603     16.460   166.975
9.71532     17.671   160.430
9.85663     18.881   153.886
10.0000     19.403   147.939
10.1455     19.732   142.158
10.2930     19.814   136.949
10.4427     19.204   133.336
10.5946     18.594   129.723
10.7487     17.072   134.138
10.9051     15.368   140.155
11.0637     14.937   154.562
11.2246     15.852   177.843
11.3879     17.174  -163.056
11.5535     19.977  -159.190
11.7216     22.763  -155.457
11.8921     24.518  -159.546
12.0650     26.274  -163.636
12.2405     27.329  -169.405
12.4186     28.294  -175.391
12.5992     28.718   178.435
12.7825     29.023   172.218
12.9684     28.767   166.892
13.1570     28.382   161.773
13.3484     27.289   160.128
13.5426     26.081   159.047
13.7395     24.555   170.106
13.9394     23.342  -177.484
14.1421     24.610  -158.360
14.3478     26.223  -143.962
14.5565     28.575  -139.727
14.7683     30.487  -139.388
14.9831     32.059  -142.059
15.2010     32.990  -146.067
15.4221     33.695  -150.145
15.6464     33.884  -153.526
15.8740     33.798  -155.155
16.1049     33.491  -155.385
16.3392     33.129  -150.127
16.5768     33.104  -142.900
16.8179     33.573  -133.111
17.0626     34.871  -125.841
17.3107     36.318  -120.901
17.5625     37.830  -119.010
17.8180     39.042  -119.741
18.0771     40.045  -121.001
18.3401     40.835  -122.532
18.6068     41.372  -123.494
18.8775     41.809  -123.462
19.1521     42.222  -122.574
19.4306     42.664  -120.873
19.7133     43.225  -118.708
20.0000     43.863  -116.831
20.2909     44.519  -115.364
20.5860     45.146  -114.293
20.8855     45.703  -113.432
21.1893     46.160  -112.292
21.4975     46.579  -110.533
21.8102     47.022  -108.156
22.1274     47.537  -105.370
22.4492     48.146  -102.542
22.7758     48.830  -100.073
23.1071     49.535   -98.189
23.4432     50.198   -96.831
23.7841     50.777   -95.704
24.1301     51.277   -94.427
24.4811     51.728   -92.765
24.8372     52.173   -90.656
25.1984     52.650   -88.216
25.5649     53.175   -85.670
25.9368     53.738   -83.235
26.3141     54.316   -81.021
26.6968     54.884   -79.010
27.0851     55.428   -77.101
27.4791     55.944   -75.166
27.8788     56.445   -73.107
28.2843     56.943   -70.902
28.6957     57.452   -68.591
29.1131     57.976   -66.240
29.5365     58.510   -63.907
29.9661     59.044   -61.605
30.4020     59.573   -59.302
30.8442     60.089   -56.935
31.2929     60.602   -54.476
31.7480     61.112   -51.933
32.2098     61.619   -49.330
32.6783     62.116   -46.664
33.1536     62.600   -43.916
33.6359     63.074   -41.053
34.1251     63.543   -38.055
34.6215     64.015   -34.963
35.1250     64.490   -31.849
35.6359     64.967   -28.780
36.1543     65.437   -25.771
36.6802     65.894   -22.796
37.2137     66.336   -19.802
37.7550     66.773   -16.765
38.3041     67.212   -13.699
38.8613     67.652   -10.642
39.4265     68.088    -7.598
40.0000     68.518    -4.544
40.5818     68.944    -1.482
41.1721     69.359     1.550
41.7710     69.748     4.570
42.3785     70.097     7.716
42.9949     70.422    11.131
43.6203     70.748    14.814
44.2548     71.091    18.629
44.8985     71.444    22.427
45.5515     71.788    26.204
46.2141     72.122    29.999
46.8863     72.445    33.836
47.5683     72.760    37.726
48.2602     73.071    41.670
48.9621     73.379    45.629
49.6743     73.674    49.582
50.3968     73.951    53.579
51.1299     74.212    57.681
51.8736     74.468    61.878
52.6281     74.717    66.141
53.3936     74.956    70.486
54.1702     75.188    74.932
54.9581     75.409    79.484
55.7575     75.616    84.155
56.5685     75.803    88.960
57.3914     75.967    93.897
58.2261     76.099    98.978
59.0730     76.196   104.285
59.9323     76.279   109.821
60.8040     76.357   115.477
61.6884     76.425   121.196
62.5857     76.487   127.040
63.4960     76.553   132.996
64.4196     76.607   139.056
65.3566     76.645   145.385
66.3073     76.674   151.991
67.2717     76.679   158.881
68.2502     76.665   166.146
69.2429     76.650   173.702
70.2501     76.634  -178.614
71.2719     76.608  -170.830
72.3086     76.573  -162.935
73.3603     76.522  -154.928
74.4274     76.445  -146.655
75.5099     76.354  -137.993
76.6083     76.251  -128.954
77.7226     76.152  -119.481
78.8531     76.074  -109.751
80.0000     76.010   -99.914
81.1636     75.947   -89.965
82.3442     75.890   -79.857
83.5419     75.830   -69.572
84.7570     75.756   -59.005
85.9899     75.680   -48.107
87.2406     75.603   -36.972
88.5096     75.525   -25.695
89.7970     75.433   -14.303
91.1031     75.325    -2.779
92.4282     75.178     9.034
93.7726     75.012    21.459
95.1366     74.877    34.448
96.5204     74.762    47.717
97.9243     74.660    61.337
99.3486     74.590    75.142
100.794     74.537    89.073
102.260     74.497   103.126
103.747     74.459   117.371
105.256     74.421   131.825
106.787     74.379   146.454
108.340     74.304   161.245
109.916     74.191   176.510
111.515     74.109  -167.577
113.137     74.077  -151.441
114.783     74.061  -135.126
116.452     74.042  -118.554
118.146     74.024  -101.757
119.865     74.012   -84.762
121.608     74.007   -67.541
123.377     74.018   -50.133
125.171     74.041   -32.413
126.992     74.060   -14.474
128.839     74.074     3.749
130.713     74.066    22.151
132.615     74.025    40.913
134.543     73.995    60.525
136.500     73.989    80.600
138.486     73.983    98.777
140.500     73.979   118.845
142.544     73.974   140.564
144.617     73.913   160.668
146.721     73.893  -178.654
148.855     73.967  -156.288
151.020     74.034  -134.551
153.217     74.011  -113.057
155.445     73.942   -91.178
157.706     73.894   -69.283
160.000     73.771   -45.097
162.327     73.737   -20.163
164.688     73.778     2.558
167.084     73.929    27.113
169.514     74.037    51.376
171.980     73.721    76.644
174.481     73.583   102.151
177.019     73.617   127.277
179.594     73.668   154.067
182.206     73.700  -177.308
184.856     73.779  -148.324
187.545     73.943  -121.614
190.273     74.156   -93.472
193.041     74.333   -66.033
195.849     74.414   -38.673
198.697     74.500    -9.260
201.587     74.622    19.845
204.520     74.590    48.566
207.494     74.486    77.975
210.512     74.396   110.288
213.574     74.420   142.132
216.681     74.429   172.220
219.833     74.362  -156.108
223.030     74.334  -121.809
226.274     74.272   -87.792
229.565     74.332   -52.854
232.905     74.467   -18.539
236.292     74.552    15.633
239.729     74.714    51.585
243.216     74.904    87.027
246.754     74.980   122.624
250.343     75.063   160.017
253.984     75.223  -162.732
257.678     75.311  -126.132
261.426     75.325   -87.512
265.229     75.336   -49.636
269.087     74.996   -10.243
273.001     74.953    30.941
276.972     75.088    70.716
281.000     75.150   111.953
285.088     75.187   155.266
289.234     75.225  -161.529
293.441     75.353  -118.485
297.709     75.373   -76.090
302.040     75.380   -34.449
306.433     75.048    10.253
310.890     75.101    58.069
315.412     75.119   103.655
320.000     74.914   149.301
324.655     74.521  -163.517
329.377     74.454  -115.094
334.168     74.364   -64.631
339.028     74.259   -13.097
343.959     74.209    37.923
348.962     74.178    88.815
354.038     74.114   139.725
359.188     74.135  -167.843
364.412     73.973  -114.505
369.713     73.774   -59.175
375.090     73.775    -4.577
380.546     73.729    51.345
386.081     73.576   107.535
391.697     73.440   165.423
397.394     73.407  -134.611
403.175     73.129   -77.725
409.039     72.896   -17.212
414.989     72.740    44.940
421.025     72.615   107.087
427.149     72.440   169.056
433.362     72.311  -128.545
439.665     72.269   -62.678
446.060     72.010     2.576
452.548     71.895    68.499
459.131     71.696   136.431
465.809     71.644  -153.564
472.584     71.466   -84.227
479.458     71.311   -14.223
486.432     71.207    57.485
493.507     71.049   130.991
500.686     70.909  -153.314
507.968     70.787   -77.466
515.357     70.675    -1.708
522.853     70.568    76.092
530.458     70.463   155.954
538.174     70.376  -124.104
546.002     70.285   -44.082
553.943     70.203    37.934
562.001     70.125   121.947
570.175     70.057  -152.073
578.469     69.997   -64.138
586.883     69.939    23.883
595.419     69.884   111.833
604.080     69.831  -158.303
612.866     69.782   -66.511
621.780     69.738    27.200
630.824     69.696   122.766
640.000     69.664  -141.610
649.309     69.648   -46.037
658.753     69.624    51.560
668.335     69.609   152.863
678.056     69.601  -105.842
687.919     69.615    -2.639
697.925     69.630   102.465
708.077     69.650  -152.496
718.376     69.693   -45.597
728.825     69.734    63.132
739.426     69.794   173.700
750.181     69.858   -73.946
761.093     69.932    40.236
772.163     70.005   154.250
783.394     70.088   -89.961
794.789     70.172    29.477
806.349     70.251   148.759
818.078     70.326   -90.229
829.977     70.388    32.514
842.050     70.435   156.944
854.298     70.468   -76.954
866.724     70.482    49.013
879.330     70.472   178.544
892.120     70.430   -50.241
905.097     70.349    82.731
918.262     70.236  -142.694
931.618     70.072    -6.387
945.169     69.865   131.512
958.917     69.605   -88.809
972.864     69.282    52.445
987.015     68.885  -164.593
1001.37     68.406   -18.225
1015.94     67.833   129.723
1030.71     67.174   -82.679
1045.71     66.394    68.221
1060.92     65.459  -137.846
1076.35     64.391    15.424
1092.00     63.146   169.412
1107.89     61.679   -34.749
1124.00     60.073   120.370
1140.35     58.401   -86.743
1156.94     57.084    64.846
1173.77     56.668  -145.351
1190.84     57.314     7.907
1208.16     58.566   167.769
1225.73     59.925   -24.207
1243.56     61.153   151.027
1261.65     62.159   -29.702
1280.00     62.915   152.864
1298.62     63.506   -21.711
1317.51     63.882   168.304
1336.67     64.080     2.647
1356.11     64.100  -160.545
1375.84     63.947    40.471
1395.85     63.637  -114.034
1416.15     63.139    94.101
1436.75     62.491   -54.967
1457.65     61.661   160.981
1478.85     60.693    22.362
1500.36     59.660  -112.233
1522.19     58.681   119.634
1544.33     57.960    -2.062
1566.79     57.729  -118.598
1589.58     58.002   128.156
1612.70     58.604    14.374
1636.16     59.356   -98.004
1659.95     60.019   151.401
1684.10     60.521    42.863
1708.60     60.859   -62.925
1733.45     60.998  -167.254
1758.66     60.912    93.740
1784.24     60.604    -1.328
1810.19     60.103   -94.282
1836.52     59.369   179.487
1863.24     58.413    97.990
1890.34     57.287    22.240
1917.83     56.058   -47.323
1945.73     54.884  -109.944
1974.03     54.031  -164.118
2002.74     53.686   146.943
2031.87     53.881   101.059
2061.43     54.333    56.629
2091.41     54.847    15.674
2121.83     55.289   -21.155
2152.69     55.569   -56.803
2184.01     55.719   -87.351
2215.77     55.807  -112.050
2248.00     55.814  -132.751
2280.70     55.845  -149.642
2313.87     55.887  -160.733
2347.53     55.968  -166.527
2381.68     56.063  -169.124
2416.32     56.144  -166.868
2451.46     56.197  -159.801
2487.12     56.161  -147.737
2523.30     56.004  -130.805
2560.00     55.712  -108.764
2597.24     55.281   -83.265
2635.01     54.717   -52.052
2673.34     53.999   -14.695
2712.23     53.207    29.079
2751.68     52.391    82.136
2791.70     51.714   142.235
2832.31     51.364  -150.711
2873.50     51.377   -77.954
2915.30     51.726    -0.935
2957.70     52.215    81.889
3000.72     52.715   168.480
3044.37     53.074  -100.661
3088.65     53.283    -3.353
3133.58     53.305    99.175
3179.16     53.153  -151.109
3225.40     52.889   -34.116
3272.31     52.575    88.177
3319.91     52.267  -142.159
3368.20     52.065    -5.231
3417.19     51.906   137.296
3466.89     51.895   -73.023
3517.32     51.970    86.816
3568.48     52.090  -107.049
3620.39     52.205    67.793
3673.05     52.281  -106.554
3726.47     52.245    88.101
3780.67     52.121   -69.033
3835.67     51.902   143.047
3891.46     51.527     5.084
3948.06     50.950  -124.107
4005.49     50.252   115.297
4063.75     49.344     7.839
4122.86     48.454   -90.782
4182.82     47.683   178.962
4243.66     46.915    99.137
4305.39     45.902    23.930
4368.01     44.064   -44.847
4431.55     40.435  -109.403
4496.01     31.957   172.128
4561.40     32.692    22.749
4627.75     41.103   -32.457
4695.06     44.857   -53.948
4763.35     47.140   -60.689
4832.64     48.829   -54.050
4902.93     50.461   -34.720
4974.24     52.087    -5.205
5046.60     53.499    31.818
5120.00     54.552    78.490
5194.47     55.138   135.901
5270.03     55.271  -157.156
5346.68     55.060   -77.396
5424.45     54.663    17.926
5503.35     54.392   126.309
5583.40     54.434  -113.981
5664.61     54.654    17.219
5747.01     54.752   158.185
5830.60     54.681   -49.850
5915.41     54.583   118.457
6001.45     54.625   -61.127
6088.74     54.801   130.089
6177.30     54.902   -24.057
6267.15     54.709  -164.434
6358.31     54.284    70.509
6450.80     53.826   -38.578
6544.62     53.593  -132.902
6639.82     53.597   147.113
6736.40     53.517    80.137
6834.38     52.987    24.723
6933.79     51.970   -15.045
7034.64     50.736   -38.296
7136.96     49.566   -49.494
7240.77     48.037   -48.356
7346.09     45.585   -36.294
7452.94     42.067   -15.755
7561.35     38.814    15.068
7671.33     38.415    61.467
7782.91     40.459   131.908
7896.12     42.756  -133.455
8010.97     44.230   -18.567
8127.49     45.119   117.344
8245.71     45.020   -85.773
8365.65     45.101    95.439
8487.33     46.659   -67.075
8610.78     48.227   133.497
8736.03     48.002   -15.156
8863.09     45.485  -142.524
8992.01     41.773   128.210
9122.80     41.591    67.550
9255.50     41.894     2.203
9390.12     37.841   -50.809
9526.70     27.629   -25.818
9665.27     34.131    26.563
9805.86     35.532    15.695
9948.49     32.606    10.253
10093.2     27.255    45.927
10240.0     27.728   177.140
10388.9     33.934   -80.626
10540.1     35.471    22.752
10693.4     34.505   160.965
10848.9     33.829    -4.294
11006.7     36.262  -139.325
11166.8     38.411    95.492
11329.2     38.315    -5.084
11494.0     37.899   -68.958
11661.2     39.189  -112.563
11830.8     39.155  -141.309
12002.9     38.154  -134.864
12177.5     38.421  -103.971
12354.6     37.937   -55.015
12534.3     35.861    23.805
12716.6     32.691   132.531
12901.6     29.350   -84.514
13089.2     26.290    66.123
13279.6     17.624   175.137
13472.8     14.570  -175.095
13668.8     28.944   -78.714
13867.6     33.375   153.991
14069.3     27.589   105.334
14273.9     32.823   121.235
14481.5     33.293   103.986
14692.2     28.186   156.659
14905.9     30.337  -118.729
15122.7     27.376   -42.794
15342.7     20.016   110.835
15565.8     22.619   -98.811
15792.2     26.446    17.065
16021.9     25.369  -139.878
16255.0     24.964  -174.995
16491.4     28.440   132.077
16731.3     26.889   119.310
16974.7     26.077   156.402
17221.6     24.731  -104.854
17472.1     24.737    28.039
17726.2     22.524  -142.027
17984.0     25.563    60.289
18245.6     23.013   -76.718
18511.0     24.093  -156.113
18780.2     17.500  -101.362
19053.4     23.279  -120.084
19330.5     26.869   -78.628
19611.7     27.651   -28.106
19897.0     24.478    78.022
20186.4     25.950  -145.883
20480.0     24.047    39.553
20777.9     23.386   -70.113
21080.1     21.242  -110.865
21386.7     23.767  -104.668
21697.8     23.057   -56.241
22013.4     23.207    41.681
22333.6     22.384   160.386
22658.4     23.092    -6.274
22988.0     20.782  -162.343
23322.4     15.565    61.602
23661.6     17.227  -165.448
24005.8     13.325  -178.744
24355.0     20.190    -8.935
24709.2     23.526    87.022
25068.6     30.737  -159.188
25433.2     30.286    -6.740
25803.2     25.106   -88.260
26178.5     19.408   -39.391
26559.3     17.053  -115.084
26945.6     13.084   136.821
27337.5     13.968   169.772
27735.2     14.278    56.586
28138.6     17.482   143.276
28547.9     20.667    63.535
28963.1     16.373    76.146
29384.4     13.048    44.696
29811.8     13.435  -113.770
30245.4     14.756   131.583
30685.3     14.449   -16.407
31131.7     15.483   135.568
31584.5     15.828    48.271
32043.9     14.191  -148.400
32510.0     13.986   118.656
32982.8     14.243    63.775
33462.6     13.591    13.472
33949.3     14.761   -84.932
34443.1     15.961   -69.099
34944.1     12.951   -16.458
35452.4     13.665    -1.845
35968.0     14.359    74.622
36491.2     14.222   -35.901
37022.0     13.918  -155.845
37560.5     14.918   -23.109
38106.8     14.903   161.400
38661.1     14.343    94.859
39223.4     15.688   113.714
39793.9     15.073   107.063
