Freq[Hz]     dBSPL  Phase[Deg]
5.00000    -10.655  -163.747
5.07273    -13.150  -161.402
5.14651    -14.348  -172.900
5.22137    -11.926   136.944
5.29732     -9.503    86.787
5.37437     -7.081    36.631
5.45254     -4.658   -13.525
5.53185     -2.738   -40.693
5.61231     -1.349   -43.542
5.69394      0.040   -46.391
5.77676      1.429   -49.240
5.86079      2.801   -52.110
5.94604      3.185   -56.183
6.03252      3.568   -60.257
6.12027      3.952   -64.330
6.20929      4.335   -68.404
6.29961      3.962   -73.185
6.39124      3.420   -78.125
6.48420      2.878   -83.064
6.57851      2.337   -88.003
6.67420     -0.659   -97.524
6.77128     -4.054  -107.789
6.86977     -7.449  -118.055
6.96969    -10.069  -132.589
7.07107     -6.801  -179.593
7.17392     -3.533   133.402
7.27827     -0.265    86.397
7.38413      2.252    62.093
7.49154      4.188    55.326
7.60050      6.125    48.560
7.71105      7.805    41.852
7.82321      8.362    35.401
7.93701      8.918    28.949
8.05245      9.475    22.498
8.16958      8.781    15.311
8.28841      8.040     8.096
8.40896      7.299     0.882
8.53128      2.246   -24.427
8.65537     -3.363   -52.070
8.78126     -8.972   -79.713
8.90899     -2.821    -2.901
9.03857      4.101    80.755
9.17004     10.526   154.188
9.30342     12.996   146.247
9.43874     15.466   138.306
9.57603     17.440   130.723
9.71532     18.657   123.688
9.85663     19.874   116.652
10.0000     20.401   110.202
10.1455     20.736   103.916
10.2930     20.823    98.196
10.4427     20.217    94.061
10.5946     19.611    89.925
10.7487     18.093    93.802
10.9051     16.393    99.278
11.0637     15.965   113.134
11.2246     16.882   135.854
11.3879     18.206   154.389
11.5535     21.011   157.671
11.7216     23.799   160.820
11.8921     25.554   156.122
12.0650     27.310   151.424
12.2405     28.364   145.023
12.4186     29.329   138.403
12.5992     29.752   131.569
12.7825     30.056   124.689
12.9684     29.799   118.675
13.1570     29.413   112.863
13.3484     28.319   110.498
13.5426     27.110   108.692
13.7395     25.583   118.997
13.9394     24.370   130.647
14.1421     25.638   148.983
14.3478     27.251   162.584
14.5565     29.606   166.002
14.7683     31.521   165.507
14.9831     33.096   161.989
15.2010     34.034   157.113
15.4221     34.746   152.158
15.6464     34.944   147.881
15.8740     34.868   145.343
16.1049     34.573   144.196
16.3392     34.224   148.521
16.5768     34.216   154.809
16.8179     34.702   163.652
17.0626     36.019   169.966
17.3107     37.487   173.948
17.5625     39.022   174.876
17.8180     40.257   173.180
18.0771     41.285   170.954
18.3401     42.100   168.456
18.6068     42.664   166.528
18.8775     43.127   165.594
19.1521     43.566   165.517
19.4306     44.034   166.253
19.7133     44.620   167.452
20.0000     45.283   168.361
20.2909     45.961   168.855
20.5860     46.609   168.948
20.8855     47.185   168.822
21.1893     47.657   168.961
21.4975     48.090   169.703
21.8102     48.545   171.043
22.1274     49.070   172.770
22.4492     49.687   174.513
22.7758     50.378   175.869
23.1071     51.089   176.607
23.4432     51.757   176.784
23.7841     52.341   176.693
24.1301     52.847   176.714
24.4811     53.305   177.085
24.8372     53.760   177.868
25.1984     54.250   178.951
25.5649     54.792  -179.889
25.9368     55.375  -178.865
26.3141     55.977  -178.080
26.6968     56.573  -177.514
27.0851     57.149  -177.057
27.4791     57.700  -176.578
27.8788     58.239  -175.974
28.2843     58.778  -175.220
28.6957     59.330  -174.352
29.1131     59.898  -173.437
29.5365     60.473  -172.533
29.9661     61.048  -171.656
30.4020     61.616  -170.779
30.8442     62.168  -169.845
31.2929     62.713  -168.833
31.7480     63.253  -167.757
32.2098     63.786  -166.646
32.6783     64.308  -165.509
33.1536     64.815  -164.326
33.6359     65.310  -163.068
34.1251     65.802  -161.718
34.6215     66.297  -160.315
35.1250     66.799  -158.925
35.6359     67.306  -157.614
36.1543     67.807  -156.389
36.6802     68.300  -155.216
37.2137     68.781  -154.040
37.7550     69.260  -152.829
38.3041     69.741  -151.596
38.8613     70.225  -150.377
39.4265     70.703  -149.179
40.0000     71.177  -147.980
40.5818     71.643  -146.789
41.1721     72.097  -145.648
41.7710     72.524  -144.544
42.3785     72.909  -143.346
42.9949     73.271  -141.910
43.6203     73.634  -140.240
44.2548     74.014  -138.473
44.8985     74.405  -136.753
45.5515     74.789  -135.082
46.2141     75.164  -133.417
46.8863     75.531  -131.731
47.5683     75.890  -130.011
48.2602     76.246  -128.254
48.9621     76.599  -126.495
49.6743     76.940  -124.755
50.3968     77.260  -122.983
51.1299     77.564  -121.120
51.8736     77.860  -119.179
52.6281     78.145  -117.194
53.3936     78.415  -115.161
54.1702     78.674  -113.071
54.9581     78.918  -110.934
55.7575     79.146  -108.747
56.5685     79.355  -106.501
57.3914     79.544  -104.194
58.2261     79.707  -101.802
59.0730     79.843   -99.225
59.9323     79.971   -96.431
60.8040     80.101   -93.510
61.6884     80.221   -90.503
62.5857     80.332   -87.349
63.4960     80.438   -84.077
64.4196     80.524   -80.724
65.3566     80.583   -77.163
66.3073     80.627   -73.412
67.2717     80.644   -69.482
68.2502     80.643   -65.271
69.2429     80.649   -60.843
70.2501     80.660   -56.338
71.2719     80.666   -51.756
72.3086     80.665   -47.078
73.3603     80.646   -42.309
74.4274     80.598   -37.313
75.5099     80.533   -31.984
76.6083     80.457   -26.341
77.7226     80.384   -20.324
78.8531     80.336   -14.096
80.0000     80.303    -7.797
81.1636     80.272    -1.419
82.3442     80.242     5.076
83.5419     80.209    11.691
84.7570     80.160    18.523
85.9899     80.112    25.622
87.2406     80.064    32.910
88.5096     80.016    40.300
89.7970     79.953    47.769
91.1031     79.870    55.321
92.4282     79.746    63.096
93.7726     79.602    71.409
95.1366     79.491    80.216
96.5204     79.403    89.251
97.9243     79.328    98.599
99.3486     79.283   108.091
100.794     79.251   117.654
102.260     79.230   127.268
103.747     79.208   136.996
105.256     79.187   146.857
106.787     79.163   156.828
108.340     79.106   166.901
109.916     79.011   177.391
111.515     78.944  -171.532
113.137     78.924  -160.302
114.783     78.918  -148.978
116.452     78.908  -137.487
118.146     78.904  -125.853
119.865     78.908  -114.068
121.608     78.917  -102.083
123.377     78.934   -89.955
125.171     78.951   -77.616
126.992     78.959   -65.213
128.839     78.969   -52.672
130.713     78.967   -40.035
132.615     78.938   -27.065
134.543     78.915   -13.392
136.500     78.909     0.612
138.486     78.900    13.252
140.500     78.895    27.229
142.544     78.885    42.328
144.617     78.814    56.373
146.721     78.777    70.958
148.855     78.836    86.624
151.020     78.895   101.656
153.217     78.867   116.492
155.445     78.789   131.762
157.706     78.724   147.049
160.000     78.578   164.046
162.327     78.524  -178.219
164.688     78.545  -162.134
167.084     78.672  -144.768
169.514     78.754  -128.267
171.980     78.416  -110.743
174.481     78.255   -92.373
177.019     78.256   -74.370
179.594     78.267   -55.310
182.206     78.263   -35.011
184.856     78.312   -14.279
187.545     78.437     4.782
190.273     78.599    24.661
193.041     78.736    43.799
195.849     78.781    62.945
198.697     78.816    83.646
201.587     78.877   103.969
204.520     78.794   123.883
207.494     78.640   144.549
210.512     78.488   167.584
213.574     78.452  -169.887
216.681     78.412  -148.517
219.833     78.284  -126.043
223.030     78.188  -101.520
226.274     78.067   -77.210
229.565     78.050   -51.904
232.905     78.106   -27.326
236.292     78.126    -2.790
239.729     78.190    23.077
243.216     78.279    48.194
246.754     78.294    73.535
250.343     78.301   100.339
253.984     78.374   126.975
257.678     78.381   152.983
261.426     78.311  -179.482
265.229     78.239  -152.621
269.087     77.813  -124.240
273.001     77.696   -94.019
276.972     77.754   -65.095
281.000     77.728   -35.253
285.088     77.691    -3.848
289.234     77.656    27.569
293.441     77.711    58.742
297.709     77.696    89.329
302.040     77.660   119.404
306.433     77.278   151.934
310.890     77.299  -172.871
315.412     77.295  -139.913
320.000     77.080  -106.823
324.655     76.680   -72.262
329.377     76.636   -36.449
334.168     76.570     0.440
339.028     76.510    38.263
343.959     76.527    75.631
348.962     76.565   112.817
354.038     76.587   149.900
359.188     76.717  -172.013
364.412     76.668  -133.618
369.713     76.596   -93.334
375.090     76.732   -53.890
380.546     76.830   -13.721
386.081     76.824    26.575
391.697     76.848    67.912
397.394     76.972   110.773
403.175     76.843   150.793
409.039     76.771  -166.036
414.989     76.759  -121.990
421.025     76.782   -78.005
427.149     76.737   -34.269
433.362     76.721     9.749
439.665     76.796    56.053
446.060     76.648   101.714
452.548     76.599   148.072
459.131     76.473  -164.294
465.809     76.461  -115.059
472.584     76.310   -66.625
479.458     76.169   -17.381
486.432     76.052    32.938
493.507     75.866    84.656
500.686     75.678   137.992
507.968     75.496  -168.422
515.357     75.307  -114.721
522.853     75.108   -59.484
530.458     74.912    -2.618
538.174     74.725    54.524
546.002     74.551   111.860
553.943     74.384   170.816
562.001     74.237  -128.615
570.175     74.113   -66.519
578.469     74.013    -2.937
586.883     73.938    60.668
595.419     73.898   124.240
604.080     73.876  -170.893
612.866     73.879  -104.771
621.780     73.899   -37.391
630.824     73.930    31.171
640.000     73.963    99.525
649.309     73.993   167.728
658.753     74.021  -122.863
668.335     74.020   -50.881
678.056     74.008    20.946
687.919     73.963    94.067
697.925     73.902   168.502
708.077     73.798  -117.044
718.376     73.667   -41.215
728.825     73.506    36.079
739.426     73.311   114.839
750.181     73.092  -164.851
761.093     72.859   -83.025
772.163     72.620    -0.924
783.394     72.376    82.789
794.789     72.135   169.474
806.349     71.909  -103.690
818.078     71.708   -15.256
829.977     71.523    74.563
842.050     71.367   165.827
854.298     71.228  -101.550
866.724     71.110    -8.943
879.330     70.980    86.406
892.120     70.854  -176.904
905.097     70.723   -78.738
918.262     70.583    20.884
931.618     70.454   122.050
945.169     70.354  -135.057
958.917     70.278   -30.608
972.864     70.269    75.354
987.015     70.330  -177.283
1001.37     70.478   -67.414
1015.94     70.688    43.464
1030.71     70.942   153.728
1045.71     71.218   -93.905
1060.92     71.467    20.530
1076.35     71.669   134.395
1092.00     71.783  -110.825
1107.89     71.804     6.378
1124.00     71.720   124.864
1140.35     71.526  -115.100
1156.94     71.226     8.074
1173.77     70.845   133.338
1190.84     70.424   -99.143
1208.16     70.032    30.771
1225.73     69.743   164.343
1243.56     69.620   -58.869
1261.65     69.691    79.098
1280.00     69.905  -142.354
1298.62     70.179    -3.588
1317.51     70.436   136.792
1336.67     70.602   -81.001
1356.11     70.633    62.078
1375.84     70.504  -152.306
1395.85     70.227    -3.677
1416.15     69.830   147.051
1436.75     69.368   -59.855
1457.65     68.942    97.142
1478.85     68.610  -102.269
1500.36     68.451    59.909
1522.19     68.429  -135.560
1544.33     68.467    30.865
1566.79     68.460  -160.793
1589.58     68.353     9.895
1612.70     68.114  -177.788
1636.16     67.792    -1.874
1659.95     67.488   177.954
1684.10     67.367     1.530
1708.60     67.496  -172.058
1733.45     67.849    14.630
1758.66     68.277  -156.297
1784.24     68.636    33.948
1810.19     68.819  -135.465
1836.52     68.801    59.008
1863.24     68.613  -103.294
1890.34     68.333    98.207
1917.83     68.101   -56.541
1945.73     68.037   151.940
1974.03     68.136     4.187
2002.74     68.321  -142.079
2031.87     68.459    73.223
2061.43     68.468   -69.588
2091.41     68.313   151.570
2121.83     68.040    17.197
2152.69     67.731  -115.175
2184.01     67.468   117.018
2215.77     67.290    -6.720
2248.00     67.156  -128.214
2280.70     67.011   112.455
2313.87     66.840    -3.091
2347.53     66.653  -114.625
2381.68     66.518   136.384
2416.32     66.458    30.915
2451.46     66.436   -71.515
2487.12     66.364  -171.086
2523.30     66.176    92.580
2560.00     65.858     0.085
2597.24     65.489   -89.262
2635.01     65.169  -173.971
2673.34     65.005   105.508
2712.23     64.998    28.519
2751.68     65.085   -43.950
2791.70     65.179  -112.911
2832.31     65.264  -177.771
2873.50     65.366   121.805
2915.30     65.535    65.916
2957.70     65.790    15.620
3000.72     66.081   -30.529
3044.37     66.380   -72.512
3088.65     66.678  -108.970
3133.58     66.962  -141.294
3179.16     67.194  -168.134
3225.40     67.327   170.664
3272.31     67.379   154.154
3319.91     67.436   143.864
3368.20     67.549   139.182
3417.19     67.644   138.086
3466.89     67.576   142.217
3517.32     67.309   154.200
3568.48     67.075   172.351
3620.39     67.164  -163.177
3673.05     67.527  -133.452
3726.47     67.811  -100.351
3780.67     67.863   -62.332
3835.67     67.821   -18.171
3891.46     67.865    32.934
3948.06     67.934    88.673
4005.49     67.895   149.393
4063.75     67.832  -141.501
4122.86     67.866   -67.413
4182.82     67.847    10.659
4243.66     67.544    96.471
4305.39     67.109  -170.712
4368.01     66.881   -70.155
4431.55     66.766    35.857
4496.01     66.403   148.096
4561.40     65.942   -90.716
4627.75     65.844    38.202
4695.06     65.865   173.024
4763.35     65.542   -45.608
4832.64     65.233   105.125
4902.93     65.321   -96.381
4974.24     65.250    67.928
5046.60     64.825  -119.443
5120.00     64.654    63.277
5194.47     64.594  -107.686
5270.03     64.195    88.720
5346.68     64.009   -64.379
5424.45     64.089   149.786
5503.35     63.752    11.258
5583.40     63.426  -116.308
5664.61     63.417   124.493
5747.01     63.159    12.729
5830.60     63.057   -89.232
5915.41     63.135   177.417
6001.45     62.916    91.898
6088.74     62.917    15.572
6177.30     62.927   -52.518
6267.15     62.580  -110.723
6358.31     62.363  -158.304
6450.80     62.074   162.886
6544.62     61.705   135.255
6639.82     61.598   118.723
6736.40     61.487   112.528
6834.38     61.411   115.644
6933.79     61.248   129.654
7034.64     61.115   154.901
7136.96     60.882  -170.917
7240.77     60.455  -123.778
7346.09     59.959   -62.793
7452.94     59.667     8.834
7561.35     59.441    92.387
7671.33     59.393  -171.762
7782.91     59.295   -67.187
7896.12     59.076    50.890
8010.97     59.005   179.954
8127.49     58.906   -36.930
8245.71     59.100   115.905
8365.65     58.949   -80.564
8487.33     58.772    95.277
8610.78     58.107   -76.920
8736.03     57.475   125.867
8863.09     56.780   -17.963
8992.01     55.850  -147.928
9122.80     54.841    99.500
9255.50     54.277     0.926
9390.12     53.788   -82.181
9526.70     53.044  -150.870
9665.27     52.643   158.232
9805.86     53.361   121.050
9948.49     53.550    91.685
10093.2     53.335    79.053
10240.0     52.879    82.813
10388.9     52.180   103.950
10540.1     51.602   141.766
10693.4     50.874  -163.969
10848.9     50.084   -92.987
11006.7     49.196    -1.332
11166.8     48.291   106.929
11329.2     48.255  -124.457
11494.0     48.658    20.126
11661.2     49.255  -179.304
11830.8     50.224    -4.230
12002.9     51.209  -173.029
12177.5     51.790    33.577
12354.6     52.292  -103.248
12534.3     52.299   139.851
12716.6     51.885    42.971
12901.6     51.160   -33.714
13089.2     50.454   -87.936
13279.6     49.990  -122.243
13472.8     49.262  -137.737
13668.8     47.978  -132.798
13867.6     46.400  -101.332
14069.3     45.355   -45.300
14273.9     45.020    34.838
14481.5     45.522   136.005
14692.2     46.246  -105.418
14905.9     46.705    29.756
15122.7     46.660  -174.987
15342.7     45.667     5.263
15565.8     44.467  -147.317
15792.2     43.549    85.583
16021.9     42.855   -17.970
16255.0     41.681   -95.154
16491.4     41.648  -145.719
16731.3     41.903   179.559
16974.7     40.404   167.891
17221.6     38.782  -174.756
17472.1     37.481  -134.863
17726.2     34.739   -74.122
17984.0     32.356     8.600
18245.6     28.377   102.206
18511.0     24.880  -134.552
18780.2     23.902    34.121
19053.4     27.306  -113.565
19330.5     30.216   126.918
19611.7     31.677    34.201
19897.0     32.209   -26.661
20186.4     32.306   -51.670
20480.0     31.639   -41.913
20777.9     32.011     4.434
21080.1     32.514    76.048
21386.7     32.403   179.493
21697.8     32.050   -43.199
22013.4     32.334   131.039
22333.6     31.528   -27.392
22658.4     29.686  -147.343
22988.0     28.346   122.260
23322.4     27.847    73.458
23661.6     26.301    62.017
24005.8     24.671    92.032
24355.0     23.019   179.708
24709.2     23.358   -65.891
25068.6     22.827    69.071
25433.2     16.874  -124.946
25803.2     17.409  -120.301
26178.5     19.513   -98.183
26559.3     20.827    94.142
26945.6     24.136   -37.551
27337.5     24.780   -53.890
27735.2     18.144  -119.041
28138.6     22.262    62.468
28547.9     21.349    16.060
28963.1     20.383   -15.602
29384.4     19.052    52.719
29811.8     15.048  -116.951
30245.4     14.242   164.774
30685.3     14.169    66.845
31131.7     14.443    57.714
31584.5     14.129  -162.875
32043.9     15.179  -170.839
32510.0     13.441   123.848
32982.8     13.949  -125.610
33462.6     14.257    26.776
33949.3     14.005  -156.938
34443.1     13.558   174.205
34944.1     14.597    28.875
35452.4     13.670    92.247
35968.0     13.054   169.127
36491.2     14.816   -76.872
37022.0     15.385   -32.765
37560.5     14.108    42.861
38106.8     15.894   157.374
38661.1     13.428  -133.051
39223.4     15.464   -65.045
39793.9     15.634  -130.743
