Freq[Hz]     dBSPL  Phase[Deg]
5.00000     -9.738   160.670
5.07273    -12.233   162.516
5.14651    -13.432   150.509
5.22137    -11.011    99.816
5.29732     -8.589    49.124
5.37437     -6.167    -1.569
5.45254     -3.745   -52.262
5.53185     -1.826   -79.983
5.61231     -0.438   -83.406
5.69394      0.950   -86.829
5.77676      2.337   -90.252
5.86079      3.708   -93.696
5.94604      4.090   -98.381
6.03252      4.472  -103.066
6.12027      4.853  -107.752
6.20929      5.235  -112.437
6.29961      4.859  -117.863
6.39124      4.315  -123.452
6.48420      3.772  -129.042
6.57851      3.228  -134.632
6.67420      0.230  -144.838
6.77128     -3.168  -155.793
6.86977     -6.565  -166.748
6.96969     -9.188   178.023
7.07107     -5.923   130.288
7.17392     -2.658    82.554
7.27827      0.607    34.819
7.38413      3.121     9.762
7.49154      5.054     2.225
7.60050      6.987    -5.312
7.71105      8.665   -12.797
7.82321      9.217   -20.060
7.93701      9.770   -27.322
8.05245     10.323   -34.584
8.16958      9.626   -42.622
8.28841      8.881   -50.688
8.40896      8.137   -58.755
8.53128      3.081   -84.952
8.65537     -2.532  -113.488
8.78126     -8.145  -142.024
8.90899     -1.997   -66.143
9.03857      4.921    16.579
9.17004     11.342    89.074
9.30342     13.809    80.158
9.43874     16.275    71.243
9.57603     18.246    62.669
9.71532     19.460    54.619
9.85663     20.674    46.569
10.0000     21.198    39.074
10.1455     21.530    31.733
10.2930     21.615    24.949
10.4427     21.006    19.720
10.5946     20.397    14.490
10.7487     18.877    17.242
10.9051     17.175    21.587
11.0637     16.745    34.293
11.2246     17.661    55.843
11.3879     18.983    73.201
11.5535     21.787    75.277
11.7216     24.573    77.219
11.8921     26.327    71.280
12.0650     28.082    65.340
12.2405     29.136    57.665
12.4186     30.100    49.767
12.5992     30.523    41.627
12.7825     30.826    33.434
12.9684     30.569    26.080
13.1570     30.182    18.921
13.3484     29.087    15.179
13.5426     27.878    11.991
13.7395     26.351    20.882
13.9394     25.137    31.113
14.1421     26.405    48.000
14.3478     28.017    60.140
14.5565     30.370    62.075
14.7683     32.283    60.076
14.9831     33.857    55.039
15.2010     34.791    48.614
15.4221     35.500    42.098
15.6464     35.695    36.231
15.8740     35.616    32.083
16.1049     35.317    29.309
16.3392     34.964    31.970
16.5768     34.950    36.578
16.8179     35.431    43.718
17.0626     36.742    48.295
17.3107     38.203    50.519
17.5625     39.730    49.665
17.8180     40.958    46.149
18.0771     41.977    42.079
18.3401     42.785    37.713
18.6068     43.339    33.880
18.8775     43.793    31.011
19.1521     44.223    28.972
19.4306     44.681    27.718
19.7133     45.257    26.888
20.0000     45.910    25.735
20.2909     46.578    24.139
20.5860     47.215    22.111
20.8855     47.781    19.833
21.1893     48.243    17.782
21.4975     48.666    16.299
21.8102     49.110    15.384
22.1274     49.625    14.823
22.4492     50.231    14.245
22.7758     50.911    13.246
23.1071     51.611    11.595
23.4432     52.267     9.348
23.7841     52.838     6.794
24.1301     53.332     4.316
24.4811     53.778     2.150
24.8372     54.220     0.358
25.1984     54.695    -1.174
25.5649     55.222    -2.670
25.9368     55.790    -4.345
26.3141     56.376    -6.304
26.6968     56.956    -8.526
27.0851     57.515   -10.905
27.4791     58.050   -13.310
27.8788     58.573   -15.641
28.2843     59.096   -17.871
28.6957     59.633   -20.037
29.1131     60.185   -22.204
29.5365     60.747   -24.430
29.9661     61.310   -26.730
30.4020     61.866   -29.076
30.8442     62.409   -31.413
31.2929     62.945   -33.713
31.7480     63.477   -35.989
32.2098     64.003   -38.268
32.6783     64.517   -40.564
33.1536     65.017   -42.854
33.6359     65.505   -45.106
34.1251     65.987   -47.308
34.6215     66.472   -49.502
35.1250     66.961   -51.755
35.6359     67.452   -54.142
36.1543     67.936   -56.671
36.6802     68.410   -59.314
37.2137     68.868   -62.025
37.7550     69.323   -64.768
38.3041     69.780   -67.570
38.8613     70.239   -70.458
39.4265     70.694   -73.448
40.0000     71.145   -76.511
40.5818     71.591   -79.654
41.1721     72.027   -82.918
41.7710     72.438   -86.280
42.3785     72.809   -89.612
42.9949     73.158   -92.764
43.6203     73.509   -95.735
44.2548     73.878   -98.668
44.8985     74.257  -101.710
45.5515     74.627  -104.863
46.2141     74.989  -108.089
46.8863     75.340  -111.368
47.5683     75.685  -114.690
48.2602     76.024  -118.052
48.9621     76.362  -121.490
49.6743     76.687  -125.023
50.3968     76.993  -128.598
51.1299     77.282  -132.156
51.8736     77.561  -135.709
52.6281     77.828  -139.298
53.3936     78.078  -142.925
54.1702     78.314  -146.592
54.9581     78.535  -150.321
55.7575     78.740  -154.117
56.5685     78.929  -157.969
57.3914     79.103  -161.868
58.2261     79.258  -165.773
59.0730     79.394  -169.568
59.9323     79.527  -173.196
60.8040     79.665  -176.729
61.6884     79.791   179.790
62.5857     79.901   176.415
63.4960     79.997   173.087
64.4196     80.061   169.739
65.3566     80.089   166.456
66.3073     80.097   163.202
67.2717     80.078   159.946
68.2502     80.048   156.808
69.2429     80.032   153.752
70.2501     80.032   150.673
71.2719     80.033   147.600
72.3086     80.028   144.563
73.3603     80.003   141.547
74.4274     79.943   138.661
75.5099     79.859   135.979
76.6083     79.763   133.459
77.7226     79.672   131.159
78.8531     79.611   128.932
80.0000     79.571   126.666
81.1636     79.534   124.391
82.3442     79.498   122.147
83.5419     79.453   119.914
84.7570     79.386   117.756
85.9899     79.316   115.701
87.2406     79.249   113.658
88.5096     79.186   111.560
89.7970     79.113   109.410
91.1031     79.025   107.235
92.4282     78.894   105.173
93.7726     78.739   103.519
95.1366     78.613   102.199
96.5204     78.510   100.936
97.9243     78.423    99.819
99.3486     78.369    98.700
100.794     78.328    97.516
102.260     78.297    96.239
103.747     78.265    94.916
105.256     78.232    93.551
106.787     78.197    92.125
108.340     78.132    90.644
109.916     78.028    89.425
111.515     77.950    88.623
113.137     77.918    87.788
114.783     77.901    86.853
116.452     77.884    85.907
118.146     77.875    84.934
119.865     77.874    83.941
121.608     77.877    82.965
123.377     77.890    81.948
125.171     77.904    80.970
126.992     77.906    79.889
128.839     77.904    78.750
130.713     77.888    77.469
132.615     77.847    76.278
134.543     77.819    75.301
136.500     77.810    74.349
138.486     77.795    73.414
140.500     77.778    72.438
142.544     77.757    71.188
144.617     77.681    70.244
146.721     77.642    69.867
148.855     77.696    69.234
151.020     77.747    67.960
153.217     77.712    66.479
155.445     77.627    65.427
157.706     77.556    64.395
160.000     77.403    63.713
162.327     77.343    63.768
164.688     77.358    63.536
167.084     77.477    63.214
169.514     77.554    60.662
171.980     77.213    59.155
174.481     77.046    59.868
177.019     77.038    60.184
179.594     77.044    60.167
182.206     77.042    60.066
184.856     77.087    60.437
187.545     77.204    60.459
190.273     77.364    59.920
193.041     77.501    58.687
195.849     77.539    57.468
198.697     77.566    56.401
201.587     77.625    54.979
204.520     77.533    53.162
207.494     77.371    52.044
210.512     77.221    51.957
213.574     77.179    51.420
216.681     77.126    51.021
219.833     76.997    50.344
223.030     76.899    50.432
226.274     76.765    50.273
229.565     76.742    51.091
232.905     76.787    51.179
236.292     76.807    51.145
239.729     76.889    51.253
243.216     76.960    50.730
246.754     76.943    50.200
250.343     76.943    49.752
253.984     77.006    49.208
257.678     77.002    48.045
261.426     76.912    47.043
265.229     76.828    45.328
269.087     76.384    45.222
273.001     76.244    46.836
276.972     76.297    47.225
281.000     76.248    47.235
285.088     76.190    47.396
289.234     76.131    47.614
293.441     76.166    47.610
297.709     76.104    47.083
302.040     76.032    45.758
306.433     75.649    45.763
310.890     75.633    47.171
315.412     75.597    46.265
320.000     75.350    45.512
324.655     74.928    46.251
329.377     74.853    48.310
334.168     74.760    48.681
339.028     74.682    50.098
343.959     74.671    51.069
348.962     74.688    51.827
354.038     74.693    52.514
359.188     74.809    52.832
364.412     74.755    52.157
369.713     74.675    53.347
375.090     74.812    53.708
380.546     74.912    53.414
386.081     74.914    53.263
391.697     74.945    52.758
397.394     75.087    52.380
403.175     74.978    50.588
409.039     74.921    50.492
414.989     74.932    49.947
421.025     74.972    49.253
427.149     74.953    48.345
433.362     74.958    47.649
439.665     75.050    46.517
446.060     74.932    44.714
452.548     74.899    43.597
459.131     74.786    42.378
465.809     74.788    41.354
472.584     74.646    39.534
479.458     74.508    38.431
486.432     74.394    37.143
493.507     74.203    35.770
500.686     73.999    34.764
507.968     73.790    33.970
515.357     73.575    33.275
522.853     73.330    32.858
530.458     73.076    32.705
538.174     72.830    32.892
546.002     72.587    33.405
553.943     72.349    34.278
562.001     72.120    35.540
570.175     71.926    37.126
578.469     71.764    39.017
586.883     71.649    41.053
595.419     71.585    43.071
604.080     71.579    45.148
612.866     71.621    47.156
621.780     71.707    48.976
630.824     71.835    50.529
640.000     71.978    51.752
649.309     72.145    52.641
658.753     72.300    53.242
668.335     72.444    53.512
678.056     72.569    53.527
687.919     72.648    53.265
697.925     72.696    52.830
708.077     72.693    52.296
718.376     72.638    51.754
728.825     72.518    51.182
739.426     72.352    50.738
750.181     72.124    50.540
761.093     71.840    50.692
772.163     71.519    51.296
783.394     71.172    52.481
794.789     70.821    54.414
806.349     70.515    57.105
818.078     70.283    60.458
829.977     70.194    64.323
842.050     70.263    68.454
854.298     70.492    72.292
866.724     70.858    75.473
879.330     71.328    77.806
892.120     71.837    79.192
905.097     72.351    79.562
918.262     72.824    79.087
931.618     73.240    77.820
945.169     73.581    75.993
958.917     73.824    73.665
972.864     73.977    70.949
987.015     74.017    68.002
1001.37     73.947    64.840
1015.94     73.753    61.647
1030.71     73.444    58.524
1045.71     73.003    55.548
1060.92     72.427    52.857
1076.35     71.720    50.760
1092.00     70.882    49.408
1107.89     69.908    49.161
1124.00     68.837    50.271
1140.35     67.744    53.344
1156.94     66.726    58.578
1173.77     65.958    65.751
1190.84     65.577    73.967
1208.16     65.578    81.713
1225.73     65.879    87.872
1243.56     66.293    92.338
1261.65     66.698    95.066
1280.00     67.011    96.577
1298.62     67.205    97.385
1317.51     67.264    97.781
1336.67     67.198    98.139
1356.11     67.010    98.687
1375.84     66.738    99.655
1395.85     66.382   101.367
1416.15     65.999   103.812
1436.75     65.643   107.098
1457.65     65.366   111.322
1478.85     65.228   116.054
1500.36     65.249   120.914
1522.19     65.426   125.309
1544.33     65.707   128.959
1566.79     66.013   131.545
1589.58     66.299   133.312
1612.70     66.490   134.377
1636.16     66.580   135.162
1659.95     66.542   136.051
1684.10     66.423   137.359
1708.60     66.282   139.435
1733.45     66.189   142.255
1758.66     66.211   145.438
1784.24     66.391   148.431
1810.19     66.681   150.614
1836.52     66.990   151.719
1863.24     67.235   151.762
1890.34     67.356   151.090
1917.83     67.316   150.234
1945.73     67.119   149.587
1974.03     66.818   149.689
2002.74     66.497   150.674
2031.87     66.234   152.466
2061.43     66.084   154.517
2091.41     66.050   156.187
2121.83     66.060   157.187
2152.69     66.044   157.416
2184.01     65.946   157.358
2215.77     65.763   157.226
2248.00     65.535   157.399
2280.70     65.328   157.930
2313.87     65.164   158.647
2347.53     65.086   159.122
2381.68     65.066   159.146
2416.32     65.067   158.541
2451.46     65.090   157.356
2487.12     65.099   155.520
2523.30     65.085   153.120
2560.00     65.040   150.082
2597.24     64.932   146.737
2635.01     64.771   143.213
2673.34     64.596   139.891
2712.23     64.469   136.875
2751.68     64.446   133.996
2791.70     64.567   130.797
2832.31     64.794   126.874
2873.50     65.063   122.037
2915.30     65.315   116.502
2957.70     65.511   110.456
3000.72     65.628   104.361
3044.37     65.649    98.551
3088.65     65.572    93.248
3133.58     65.453    88.875
3179.16     65.367    85.401
3225.40     65.375    82.547
3272.31     65.449    79.519
3319.91     65.470    76.022
3368.20     65.344    72.651
3417.19     65.070    70.336
3466.89     64.811    69.760
3517.32     64.743    70.117
3568.48     64.839    70.057
3620.39     64.916    69.262
3673.05     64.890    68.773
3726.47     64.944    69.313
3780.67     65.229    69.925
3835.67     65.661    68.994
3891.46     66.005    66.489
3948.06     66.194    63.564
4005.49     66.335    60.712
4063.75     66.474    57.302
4122.86     66.504    53.139
4182.82     66.342    49.133
4243.66     66.136    46.136
4305.39     66.078    43.371
4368.01     66.074    39.287
4431.55     65.845    34.163
4496.01     65.361    29.799
4561.40     64.833    26.897
4627.75     64.384    24.541
4695.06     63.878    22.540
4763.35     63.406    21.891
4832.64     63.166    21.759
4902.93     63.019    20.463
4974.24     62.681    19.054
5046.60     62.389    19.394
5120.00     62.360    19.703
5194.47     62.359    18.943
5270.03     62.310    18.434
5346.68     62.449    17.511
5424.45     62.529    14.749
5503.35     62.314    11.921
5583.40     62.074    10.411
5664.61     61.925     8.604
5747.01     61.686     6.814
5830.60     61.529     5.645
5915.41     61.447     3.415
6001.45     61.114     0.726
6088.74     60.726    -0.296
6177.30     60.488    -1.328
6267.15     60.123    -2.814
6358.31     59.643    -3.117
6450.80     59.232    -2.066
6544.62     58.965    -0.171
6639.82     58.984     1.857
6736.40     59.248     2.145
6834.38     59.423     0.178
6933.79     59.410    -2.285
7034.64     59.331    -5.392
7136.96     58.931    -9.332
7240.77     58.170   -11.599
7346.09     57.319   -11.634
7452.94     56.542    -9.202
7561.35     55.992    -6.452
7671.33     55.392    -2.084
7782.91     55.481     3.680
7896.12     55.878     5.557
8010.97     56.281     4.854
8127.49     56.285     1.582
8245.71     56.056     0.235
8365.65     55.973    -2.692
8487.33     55.446    -6.218
8610.78     54.652    -7.322
8736.03     54.292    -5.473
8863.09     54.183    -7.961
8992.01     53.299    -9.437
9122.80     52.455    -6.667
9255.50     52.517    -1.405
9390.12     52.686    -4.014
9526.70     52.279    -4.499
9665.27     52.352    -8.577
9805.86     51.615   -13.381
9948.49     51.087   -15.874
10093.2     50.542   -19.099
10240.0     49.605   -21.781
10388.9     48.588   -21.012
10540.1     47.520   -20.399
10693.4     46.183   -18.333
10848.9     44.697   -15.090
11006.7     43.255    -9.743
11166.8     41.922    -0.764
11329.2     41.801    11.533
11494.0     42.522    20.277
11661.2     43.939    27.409
11830.8     45.157    25.314
12002.9     46.027    24.299
12177.5     46.455    20.473
12354.6     46.659    15.530
12534.3     46.583    11.397
12716.6     46.126     8.078
12901.6     45.633     3.896
13089.2     45.003     1.296
13279.6     44.272     1.328
13472.8     43.644    -2.898
13668.8     42.080    -4.456
13867.6     41.467    -0.898
14069.3     40.745     1.029
14273.9     40.384     0.595
14481.5     39.587    -5.391
14692.2     38.596    -6.158
14905.9     38.426    -7.648
15122.7     37.545   -14.301
15342.7     34.865   -15.258
15565.8     32.405   -13.271
15792.2     30.632     0.870
16021.9     30.450    -2.925
16255.0     28.581     1.112
16491.4     28.162   -32.797
16731.3     18.900  -127.709
16974.7     18.321   -22.592
17221.6     25.382   106.366
17472.1     25.931    94.950
17726.2     27.222    88.695
17984.0     26.124    87.913
18245.6     26.246    71.806
18511.0     25.192    49.140
18780.2     22.241    34.109
19053.4     18.862   -42.957
19330.5     18.699   -47.995
19611.7     18.251   -85.895
19897.0     18.750  -100.214
20186.4     19.202    92.062
20480.0     24.388  -125.034
20777.9     26.460  -127.415
21080.1     27.842  -137.406
21386.7     27.811  -150.853
21697.8     27.891  -162.760
22013.4     27.294  -167.311
22333.6     27.136  -173.836
22658.4     25.286  -163.935
22988.0     25.140  -165.179
23322.4     24.651  -169.698
23661.6     25.138  -178.159
24005.8     21.458  -165.434
24355.0     17.948  -148.887
24709.2     14.915   160.130
25068.6     17.351  -164.622
25433.2     15.682   -34.610
25803.2     24.677   -54.696
26178.5     25.677   -74.187
26559.3     26.907   -78.833
26945.6     27.294   -91.922
27337.5     26.690  -108.776
27735.2     24.069  -119.468
28138.6     23.843  -114.811
28547.9     22.399  -122.991
28963.1     22.301  -124.388
29384.4     21.064   166.014
29811.8     19.332  -141.218
30245.4     17.491   137.074
30685.3     14.314   -47.443
31131.7     13.789  -140.032
31584.5     14.733  -144.806
32043.9     14.918   163.306
32510.0     15.006   153.673
32982.8     14.108    72.020
33462.6     14.931    19.600
33949.3     12.947  -171.374
34443.1     13.753   173.869
34944.1     14.036    29.794
35452.4     13.049    93.936
35968.0     13.920   161.198
36491.2     14.694    32.878
37022.0     14.213    48.368
37560.5     14.636    99.916
38106.8     14.521  -116.304
38661.1     14.611    73.406
39223.4     14.615    86.217
39793.9     14.761  -119.873
