Freq[Hz]     dBSPL  Phase[Deg]
5.00000    -10.936   159.194
5.07273    -13.431   160.999
5.14651    -14.630   148.950
5.22137    -12.208    98.213
5.29732     -9.786    47.475
5.37437     -7.363    -3.262
5.45254     -4.941   -53.999
5.53185     -3.021   -81.766
5.61231     -1.632   -85.236
5.69394     -0.243   -88.706
5.77676      1.146   -92.176
5.86079      2.518   -95.667
5.94604      2.902  -100.400
6.03252      3.285  -105.134
6.12027      3.669  -109.867
6.20929      4.052  -114.601
6.29961      3.679  -120.074
6.39124      3.138  -125.712
6.48420      2.597  -131.350
6.57851      2.057  -136.988
6.67420     -0.939  -147.241
6.77128     -4.332  -158.243
6.86977     -7.726  -169.246
6.96969    -10.345   175.479
7.07107     -7.076   127.699
7.17392     -3.806    79.919
7.27827     -0.537    32.139
7.38413      1.981     7.039
7.49154      3.919    -0.541
7.60050      5.857    -8.120
7.71105      7.539   -15.647
7.82321      8.097   -22.949
7.93701      8.655   -30.250
8.05245      9.213   -37.552
8.16958      8.520   -45.625
8.28841      7.781   -53.728
8.40896      7.041   -61.831
8.53128      1.990   -88.061
8.65537     -3.618  -116.629
8.78126     -9.225  -145.198
8.90899     -3.073   -69.348
9.03857      3.851    13.344
9.17004     10.277    85.809
9.30342     12.748    76.865
9.43874     15.219    67.921
9.57603     17.195    59.320
9.71532     18.412    51.243
9.85663     19.630    43.166
10.0000     20.158    35.643
10.1455     20.494    28.275
10.2930     20.582    21.464
10.4427     19.977    16.206
10.5946     19.372    10.948
10.7487     17.854    13.670
10.9051     16.155    17.984
11.0637     15.727    30.658
11.2246     16.645    52.174
11.3879     17.970    69.497
11.5535     20.776    71.536
11.7216     23.564    73.440
11.8921     25.321    67.458
12.0650     27.077    61.475
12.2405     28.134    53.753
12.4186     29.100    45.807
12.5992     29.525    37.616
12.7825     29.830    29.371
12.9684     29.576    21.960
13.1570     29.192    14.743
13.3484     28.101    10.940
13.5426     26.895     7.691
13.7395     25.371    16.516
13.9394     24.162    26.681
14.1421     25.434    43.500
14.3478     27.051    55.573
14.5565     29.409    57.438
14.7683     31.328    55.370
14.9831     32.909    50.264
15.2010     33.851    43.770
15.4221     34.568    37.187
15.6464     34.770    31.253
15.8740     34.698    27.040
16.1049     34.407    24.202
16.3392     34.063    26.802
16.5768     34.058    31.350
16.8179     34.548    38.432
17.0626     35.868    42.953
17.3107     37.338    45.123
17.5625     38.874    44.216
17.8180     40.110    40.648
18.0771     41.138    36.527
18.3401     41.953    32.109
18.6068     42.515    28.223
18.8775     42.976    25.300
19.1521     43.413    23.203
19.4306     43.879    21.890
19.7133     44.462    20.996
20.0000     45.121    19.775
20.2909     45.796    18.106
20.5860     46.441    16.000
20.8855     47.015    13.638
21.1893     47.487    11.498
21.4975     47.919     9.921
21.8102     48.375     8.908
22.1274     48.901     8.246
22.4492     49.521     7.565
22.7758     50.215     6.463
23.1071     50.932     4.710
23.4432     51.607     2.365
23.7841     52.198    -0.280
24.1301     52.715    -2.842
24.4811     53.183    -5.082
24.8372     53.649    -6.934
25.1984     54.149    -8.513
25.5649     54.701   -10.043
25.9368     55.294   -11.734
26.3141     55.905   -13.694
26.6968     56.509   -15.903
27.0851     57.090   -18.256
27.4791     57.645   -20.625
27.8788     58.185   -22.911
28.2843     58.724   -25.093
28.6957     59.273   -27.210
29.1131     59.835   -29.334
29.5365     60.405   -31.524
29.9661     60.973   -33.800
30.4020     61.534   -36.137
30.8442     62.079   -38.484
31.2929     62.618   -40.814
31.7480     63.153   -43.137
32.2098     63.683   -45.481
32.6783     64.204   -47.861
33.1536     64.713   -50.245
33.6359     65.212   -52.600
34.1251     65.710   -54.909
34.6215     66.213   -57.208
35.1250     66.723   -59.558
35.6359     67.239   -62.030
36.1543     67.749   -64.628
36.6802     68.249   -67.322
37.2137     68.736   -70.063
37.7550     69.219   -72.818
38.3041     69.703   -75.614
38.8613     70.187   -78.482
39.4265     70.665   -81.444
40.0000     71.138   -84.473
40.5818     71.604   -87.582
41.1721     72.058   -90.816
41.7710     72.485   -94.154
42.3785     72.874   -97.471
42.9949     73.239  -100.614
43.6203     73.608  -103.580
44.2548     73.995  -106.509
44.8985     74.394  -109.543
45.5515     74.785  -112.683
46.2141     75.167  -115.886
46.8863     75.539  -119.132
47.5683     75.902  -122.414
48.2602     76.259  -125.735
48.9621     76.613  -129.133
49.6743     76.952  -132.636
50.3968     77.271  -136.194
51.1299     77.574  -139.751
51.8736     77.870  -143.317
52.6281     78.156  -146.925
53.3936     78.430  -150.567
54.1702     78.693  -154.232
54.9581     78.944  -157.928
55.7575     79.179  -161.652
56.5685     79.395  -165.391
57.3914     79.592  -169.147
58.2261     79.762  -172.894
59.0730     79.905  -176.542
59.9323     80.037   179.943
60.8040     80.171   176.471
61.6884     80.294   172.989
62.5857     80.406   169.562
63.4960     80.510   166.148
64.4196     80.593   162.711
65.3566     80.648   159.365
66.3073     80.689   156.096
67.2717     80.704   152.886
68.2502     80.703   149.844
69.2429     80.711   146.912
70.2501     80.727   143.954
71.2719     80.738   140.977
72.3086     80.744   138.004
73.3603     80.731   135.027
74.4274     80.688   132.174
75.5099     80.625   129.541
76.6083     80.548   127.097
77.7226     80.474   124.895
78.8531     80.426   122.770
80.0000     80.393   120.585
81.1636     80.364   118.352
82.3442     80.338   116.115
83.5419     80.309   113.877
84.7570     80.266   111.734
85.9899     80.222   109.736
87.2406     80.179   107.795
88.5096     80.135   105.828
89.7970     80.076   103.805
91.1031     79.997   101.730
92.4282     79.874    99.735
93.7726     79.732    98.133
95.1366     79.622    96.872
96.5204     79.537    95.689
97.9243     79.464    94.670
99.3486     79.422    93.651
100.794     79.393    92.555
102.260     79.373    91.350
103.747     79.353    90.093
105.256     79.334    88.803
106.787     79.314    87.463
108.340     79.262    86.074
109.916     79.170    84.946
111.515     79.104    84.234
113.137     79.083    83.487
114.783     79.077    82.637
116.452     79.071    81.772
118.146     79.073    80.884
119.865     79.085    79.990
121.608     79.098    79.130
123.377     79.115    78.220
125.171     79.131    77.310
126.992     79.139    76.252
128.839     79.151    75.130
130.713     79.154    73.914
132.615     79.130    72.848
134.543     79.110    72.006
136.500     79.104    71.148
138.486     79.094    70.260
140.500     79.089    69.336
142.544     79.082    68.176
144.617     79.015    67.328
146.721     78.983    67.031
148.855     79.047    66.471
151.020     79.108    65.279
153.217     79.082    63.889
155.445     79.005    62.924
157.706     78.943    61.972
160.000     78.799    61.382
162.327     78.746    61.535
164.688     78.767    61.375
167.084     78.895    61.123
169.514     78.984    58.676
171.980     78.648    57.294
174.481     78.481    58.082
177.019     78.478    58.437
179.594     78.497    58.493
182.206     78.501    58.514
184.856     78.548    58.970
187.545     78.672    59.043
190.273     78.844    58.599
193.041     78.987    57.491
195.849     79.025    56.365
198.697     79.056    55.374
201.587     79.120    54.028
204.520     79.034    52.291
207.494     78.878    51.254
210.512     78.735    51.248
213.574     78.704    50.814
216.681     78.657    50.546
219.833     78.528    49.975
223.030     78.434    50.156
226.274     78.303    50.125
229.565     78.278    50.978
232.905     78.344    51.112
236.292     78.378    51.328
239.729     78.441    51.573
243.216     78.518    51.016
246.754     78.524    50.624
250.343     78.528    50.336
253.984     78.601    49.915
257.678     78.601    48.890
261.426     78.523    47.991
265.229     78.451    46.431
269.087     78.019    46.430
273.001     77.899    48.218
276.972     77.958    48.764
281.000     77.928    48.897
285.088     77.883    49.239
289.234     77.841    49.543
293.441     77.901    49.671
297.709     77.870    49.251
302.040     77.828    48.163
306.433     77.451    48.287
310.890     77.470    49.705
315.412     77.468    48.924
320.000     77.249    48.215
324.655     76.863    48.986
329.377     76.825    51.073
334.168     76.766    51.487
339.028     76.716    52.835
343.959     76.746    53.749
348.962     76.789    54.444
354.038     76.827    55.012
359.188     76.967    55.254
364.412     76.932    54.400
369.713     76.874    55.429
375.090     77.024    55.634
380.546     77.130    55.130
386.081     77.146    54.776
391.697     77.180    54.131
397.394     77.316    53.599
403.175     77.199    51.621
409.039     77.130    51.397
414.989     77.127    50.700
421.025     77.147    49.913
427.149     77.110    48.885
433.362     77.092    48.169
439.665     77.156    46.976
446.060     77.007    45.154
452.548     76.953    44.039
459.131     76.809    42.876
465.809     76.788    41.919
472.584     76.620    40.224
479.458     76.459    39.313
486.432     76.322    38.169
493.507     76.116    37.050
500.686     75.897    36.317
507.968     75.687    35.767
515.357     75.469    35.402
522.853     75.241    35.230
530.458     75.023    35.398
538.174     74.811    35.902
546.002     74.615    36.628
553.943     74.431    37.620
562.001     74.283    38.872
570.175     74.163    40.386
578.469     74.076    41.990
586.883     74.028    43.588
595.419     74.011    45.133
604.080     74.028    46.547
612.866     74.065    47.764
621.780     74.128    48.838
630.824     74.195    49.734
640.000     74.263    50.306
649.309     74.318    50.715
658.753     74.360    50.921
668.335     74.373    50.970
678.056     74.357    50.879
687.919     74.304    50.694
697.925     74.216    50.504
708.077     74.086    50.353
718.376     73.910    50.269
728.825     73.701    50.368
739.426     73.450    50.641
750.181     73.169    51.268
761.093     72.866    52.164
772.163     72.563    53.438
783.394     72.271    55.144
794.789     71.998    57.247
806.349     71.765    59.688
818.078     71.588    62.304
829.977     71.463    65.077
842.050     71.403    67.781
854.298     71.386    70.377
866.724     71.407    72.727
879.330     71.444    74.904
892.120     71.482    76.870
905.097     71.515    78.667
918.262     71.537    80.377
931.618     71.542    82.084
945.169     71.540    83.809
958.917     71.549    85.591
972.864     71.568    87.495
987.015     71.607    89.392
1001.37     71.677    91.263
1015.94     71.765    92.931
1030.71     71.869    94.311
1045.71     71.976    95.414
1060.92     72.062    96.166
1076.35     72.103    96.646
1092.00     72.081    96.953
1107.89     71.992    97.204
1124.00     71.826    97.622
1140.35     71.589    98.452
1156.94     71.298    99.802
1173.77     71.005   101.892
1190.84     70.754   104.730
1208.16     70.604   108.130
1225.73     70.594   111.760
1243.56     70.726   115.113
1261.65     70.956   117.739
1280.00     71.221   119.379
1298.62     71.447   120.130
1317.51     71.597   120.187
1336.67     71.612   119.811
1356.11     71.498   119.417
1375.84     71.242   119.319
1395.85     70.890   119.959
1416.15     70.488   121.560
1436.75     70.126   124.138
1457.65     69.875   127.435
1478.85     69.771   130.885
1500.36     69.798   133.867
1522.19     69.858   136.065
1544.33     69.872   137.498
1566.79     69.770   138.581
1589.58     69.531   139.891
1612.70     69.196   142.014
1636.16     68.868   145.425
1659.95     68.680   150.041
1684.10     68.755   154.912
1708.60     69.074   158.910
1733.45     69.496   161.227
1758.66     69.869   161.831
1784.24     70.069   161.262
1810.19     70.045   160.292
1836.52     69.800   159.708
1863.24     69.403   160.193
1890.34     69.002   162.164
1917.83     68.733   165.355
1945.73     68.680   168.640
1974.03     68.803   171.112
2002.74     68.949   172.207
2031.87     68.991   172.289
2061.43     68.871   172.020
2091.41     68.624   172.159
2121.83     68.331   173.033
2152.69     68.116   174.537
2184.01     68.010   175.925
2215.77     67.985   176.605
2248.00     67.928   176.468
2280.70     67.788   175.820
2313.87     67.574   175.224
2347.53     67.367   174.993
2381.68     67.247   174.653
2416.32     67.233   173.662
2451.46     67.236   171.366
2487.12     67.156   167.926
2523.30     66.936   163.915
2560.00     66.610   160.181
2597.24     66.297   157.065
2635.01     66.126   154.218
2673.34     66.148   150.841
2712.23     66.285   146.294
2751.68     66.424   140.731
2791.70     66.515   134.786
2832.31     66.573   129.142
2873.50     66.674   123.917
2915.30     66.860   119.017
2957.70     67.094   114.085
3000.72     67.332   109.201
3044.37     67.537   104.692
3088.65     67.743   100.600
3133.58     67.953    96.734
3179.16     68.127    92.931
3225.40     68.198    89.339
3272.31     68.171    86.625
3319.91     68.153    84.952
3368.20     68.230    83.821
3417.19     68.350    82.406
3466.89     68.391    80.854
3517.32     68.364    80.045
3568.48     68.451    80.152
3620.39     68.744    79.701
3673.05     69.043    77.572
3726.47     69.114    74.574
3780.67     68.998    72.418
3835.67     68.959    71.332
3891.46     69.098    69.681
3948.06     69.195    66.635
4005.49     69.116    63.282
4063.75     69.005    60.479
4122.86     68.981    57.225
4182.82     68.854    52.911
4243.66     68.496    48.974
4305.39     68.178    46.582
4368.01     68.101    43.821
4431.55     67.931    39.335
4496.01     67.427    35.613
4561.40     67.028    34.621
4627.75     67.038    33.311
4695.06     66.946    29.975
4763.35     66.640    28.193
4832.64     66.695    27.805
4902.93     66.944    24.505
4974.24     66.728    20.069
5046.60     66.376    18.400
5120.00     66.335    16.527
5194.47     66.001    12.730
5270.03     65.326    11.935
5346.68     65.073    13.015
5424.45     64.810    11.879
5503.35     64.265    13.109
5583.40     64.321    15.724
5664.61     64.426    14.576
5747.01     64.209    14.386
5830.60     64.362    14.362
5915.41     64.331    11.478
6001.45     64.057    10.404
6088.74     64.120     8.948
6177.30     63.887     5.514
6267.15     63.537     4.283
6358.31     63.383     2.506
6450.80     63.033     1.172
6544.62     62.943     0.841
6639.82     62.848    -1.036
6736.40     62.636    -1.769
6834.38     62.550    -3.056
6933.79     62.268    -4.054
7034.64     62.079    -4.069
7136.96     61.820    -4.196
7240.77     61.555    -3.253
7346.09     61.400    -2.060
7452.94     61.279    -1.885
7561.35     60.819    -1.322
7671.33     60.553     1.633
7782.91     60.437     3.182
7896.12     60.321     4.858
8010.97     60.258     6.171
8127.49     60.429     6.215
8245.71     60.327     3.879
8365.65     60.217     1.406
8487.33     59.713    -2.937
8610.78     59.207    -5.716
8736.03     58.339   -10.097
8863.09     57.417   -10.498
8992.01     56.622   -10.931
9122.80     55.871   -10.120
9255.50     55.129    -6.511
9390.12     55.039    -2.903
9526.70     55.172     0.676
9665.27     55.476    -0.003
9805.86     55.398    -0.539
9948.49     55.305    -0.514
10093.2     55.315    -1.508
10240.0     55.123    -3.460
10388.9     54.518    -4.801
10540.1     53.950    -5.658
10693.4     53.208    -4.555
10848.9     52.425    -3.580
11006.7     51.715    -0.273
11166.8     51.250     5.519
11329.2     51.056    10.974
11494.0     51.347    14.972
11661.2     51.920    20.312
11830.8     52.724    22.106
12002.9     53.682    20.101
12177.5     54.397    15.845
12354.6     54.739    11.074
12534.3     54.558     4.206
12716.6     54.228    -0.928
12901.6     53.566    -3.755
13089.2     52.794    -6.282
13279.6     52.184    -8.767
13472.8     51.390   -12.258
13668.8     50.058   -14.332
13867.6     48.569   -10.789
14069.3     47.507    -3.618
14273.9     47.643     5.048
14481.5     48.685     8.345
14692.2     49.472     5.698
14905.9     49.761     0.900
15122.7     49.595    -5.533
15342.7     48.660   -11.722
15565.8     47.349   -14.241
15792.2     46.397   -14.548
16021.9     45.671   -15.832
16255.0     44.619   -17.338
16491.4     44.426   -15.746
16731.3     44.322   -25.151
16974.7     43.060   -32.117
17221.6     41.871   -41.432
17472.1     40.107   -53.050
17726.2     37.504   -68.808
17984.0     33.052   -85.680
18245.6     29.224  -101.548
18511.0     27.650  -141.226
18780.2     28.219   177.454
19053.4     28.979   149.720
19330.5     30.815   140.657
19611.7     32.282   130.297
19897.0     32.676   121.431
20186.4     32.938   120.055
20480.0     32.722   121.163
20777.9     33.151   123.921
21080.1     34.041   123.389
21386.7     34.613   117.688
21697.8     34.199   113.140
22013.4     34.296   112.536
22333.6     33.455   105.657
22658.4     32.107   102.984
22988.0     30.595   101.117
23322.4     29.637   100.745
23661.6     28.636   102.976
24005.8     26.756   110.088
24355.0     25.656   126.226
24709.2     25.415   141.165
25068.6     24.717   131.889
25433.2     17.685    -5.157
25803.2     20.266   175.305
26178.5     21.715  -179.907
26559.3     23.158  -166.358
26945.6     24.986  -169.396
27337.5     26.448   164.386
27735.2     19.513   165.455
28138.6     22.158   165.393
28547.9     23.319   173.570
28963.1     22.254   -81.665
29384.4     19.186   157.478
29811.8     16.361    99.341
30245.4     15.052   141.952
30685.3     14.376   -36.527
31131.7     15.043   112.447
31584.5     13.277   163.148
32043.9     14.388   -95.085
32510.0     16.105   -77.063
32982.8     15.082   -48.063
33462.6     14.368   -49.469
33949.3     14.048    69.149
34443.1     14.803  -147.722
34944.1     15.453    66.419
35452.4     15.727  -167.981
35968.0     14.659   111.773
36491.2     14.835    -8.472
37022.0     16.572    32.726
37560.5     15.342  -150.178
38106.8     15.226  -101.651
38661.1     14.404    21.214
39223.4     14.152     1.430
39793.9     15.040  -139.482
