Freq[Hz]     dBSPL  Phase[Deg]
5.00000     -9.220   178.583
5.07273    -11.715  -179.319
5.14651    -12.913   168.932
5.22137    -10.490   118.512
5.29732     -8.067    68.091
5.37437     -5.644    17.671
5.45254     -3.221   -32.749
5.53185     -1.301   -60.187
5.61231      0.088   -63.316
5.69394      1.477   -66.445
5.77676      2.866   -69.574
5.86079      4.238   -72.724
5.94604      4.622   -77.094
6.03252      5.005   -81.463
6.12027      5.388   -85.833
6.20929      5.771   -90.202
6.29961      5.397   -95.294
6.39124      4.855  -100.545
6.48420      4.313  -105.797
6.57851      3.771  -111.048
6.67420      0.774  -120.896
6.77128     -2.622  -131.491
6.86977     -6.018  -142.085
6.96969     -8.640  -156.950
7.07107     -5.373   155.699
7.17392     -2.107   108.348
7.27827      1.159    60.997
7.38413      3.674    36.336
7.49154      5.609    29.206
7.60050      7.543    22.076
7.71105      9.222    15.001
7.82321      9.775     8.167
7.93701     10.328     1.334
8.05245     10.881    -5.499
8.16958     10.183   -13.087
8.28841      9.439   -20.704
8.40896      8.694   -28.320
8.53128      3.637   -54.048
8.65537     -1.976   -82.113
8.78126     -7.590  -110.178
8.90899     -1.444   -33.808
9.03857      5.473    49.405
9.17004     11.893   122.393
9.30342     14.357   113.986
9.43874     16.822   105.580
9.57603     18.790    97.523
9.71532     20.000    90.000
9.85663     21.210    82.477
10.0000     21.731    75.521
10.1455     22.060    68.724
10.2930     22.140    62.487
10.4427     21.528    57.817
10.5946     20.915    53.147
10.7487     19.390    56.470
10.9051     17.683    61.389
11.0637     17.249    74.676
11.2246     18.160    96.816
11.3879     19.478   114.766
11.5535     22.277   117.446
11.7216     25.058   119.993
11.8921     26.808   114.672
12.0650     28.558   109.352
12.2405     29.608   102.312
12.4186     30.568    95.050
12.5992     30.987    87.561
12.7825     31.287    80.022
12.9684     31.028    73.338
13.1570     30.637    66.852
13.3484     29.541    63.801
13.5426     28.329    61.309
13.7395     26.800    70.916
13.9394     25.585    81.868
14.1421     26.851    99.497
14.3478     28.462   112.389
14.5565     30.814   115.092
14.7683     32.726   113.877
14.9831     34.299   109.637
15.2010     35.232   104.032
15.4221     35.939    98.347
15.6464     36.131    93.332
15.8740     36.048    90.052
16.1049     35.745    88.159
16.3392     35.386    91.726
16.5768     35.366    97.251
16.8179     35.840   105.322
17.0626     37.141   110.850
17.3107     38.591   114.035
17.5625     40.106   114.154
17.8180     41.319   111.624
18.0771     42.322   108.549
18.3401     43.112   105.185
18.6068     43.646   102.361
18.8775     44.078   100.505
19.1521     44.486    99.480
19.4306     44.919    99.243
19.7133     45.471    99.429
20.0000     46.097    99.292
20.2909     46.738    98.709
20.5860     47.350    97.692
20.8855     47.891    96.423
21.1893     48.329    95.380
21.4975     48.729    94.907
21.8102     49.153    95.002
22.1274     49.650    95.458
22.4492     50.240    95.905
22.7758     50.908    95.943
23.1071     51.598    95.344
23.4432     52.247    94.172
23.7841     52.816    92.721
24.1301     53.308    91.377
24.4811     53.755    90.380
24.8372     54.200    89.796
25.1984     54.679    89.513
25.5649     55.209    89.308
25.9368     55.780    88.970
26.3141     56.367    88.390
26.6968     56.945    87.587
27.0851     57.500    86.666
27.4791     58.026    85.751
27.8788     58.536    84.940
28.2843     59.041    84.250
28.6957     59.555    83.639
29.1131     60.080    83.035
29.5365     60.611    82.375
29.9661     61.139    81.638
30.4020     61.658    80.850
30.8442     62.164    80.062
31.2929     62.661    79.302
31.7480     63.156    78.560
32.2098     63.646    77.812
32.6783     64.128    77.049
33.1536     64.599    76.302
33.6359     65.060    75.608
34.1251     65.520    74.988
34.6215     65.986    74.407
35.1250     66.458    73.803
35.6359     66.935    73.108
36.1543     67.405    72.315
36.6802     67.863    71.453
37.2137     68.307    70.569
37.7550     68.745    69.691
38.3041     69.182    68.795
38.8613     69.617    67.841
39.4265     70.045    66.812
40.0000     70.467    65.731
40.5818     70.882    64.586
41.1721     71.284    63.334
41.7710     71.660    61.997
42.3785     71.996    60.704
42.9949     72.310    59.607
43.6203     72.626    58.708
44.2548     72.962    57.870
44.8985     73.307    56.950
45.5515     73.645    55.946
46.2141     73.973    54.898
46.8863     74.292    53.828
47.5683     74.602    52.744
48.2602     74.908    51.645
48.9621     75.212    50.496
49.6743     75.503    49.273
50.3968     75.775    48.031
51.1299     76.030    46.832
51.8736     76.280    45.666
52.6281     76.518    44.502
53.3936     76.743    43.345
54.1702     76.953    42.203
54.9581     77.149    41.058
55.7575     77.326    39.907
56.5685     77.485    38.754
57.3914     77.622    37.595
58.2261     77.733    36.455
59.0730     77.820    35.429
59.9323     77.902    34.562
60.8040     77.988    33.773
61.6884     78.069    33.027
62.5857     78.140    32.395
63.4960     78.207    31.847
64.4196     78.251    31.343
65.3566     78.264    30.997
66.3073     78.258    30.780
67.2717     78.223    30.662
68.2502     78.168    30.740
69.2429     78.120    30.948
70.2501     78.081    31.153
71.2719     78.039    31.367
72.3086     77.993    31.625
73.3603     77.930    31.927
74.4274     77.837    32.410
75.5099     77.724    33.168
76.6083     77.596    34.164
77.7226     77.469    35.443
78.8531     77.367    36.834
80.0000     77.281    38.201
81.1636     77.200    39.566
82.3442     77.124    40.979
83.5419     77.047    42.451
84.7570     76.953    44.074
85.9899     76.857    45.889
87.2406     76.763    47.805
88.5096     76.669    49.737
89.7970     76.561    51.667
91.1031     76.436    53.611
92.4282     76.267    55.707
93.7726     76.074    58.260
95.1366     75.912    61.199
96.5204     75.773    64.243
97.9243     75.651    67.481
99.3486     75.565    70.771
100.794     75.496    74.068
102.260     75.438    77.355
103.747     75.377    80.677
105.256     75.312    84.018
106.787     75.245    87.338
108.340     75.149    90.647
109.916     75.021    94.290
111.515     74.923    98.455
113.137     74.868   102.690
114.783     74.822   106.901
116.452     74.774   111.143
118.146     74.735   115.402
119.865     74.709   119.714
121.608     74.689   124.139
123.377     74.675   128.605
125.171     74.662   133.161
126.992     74.639   137.661
128.839     74.621   142.185
130.713     74.590   146.686
132.615     74.534   151.388
134.543     74.485   156.497
136.500     74.457   161.745
138.486     74.429   166.442
140.500     74.401   171.682
142.544     74.367   177.237
144.617     74.276  -177.474
146.721     74.222  -171.638
148.855     74.261  -165.510
151.020     74.298  -160.037
153.217     74.253  -154.792
155.445     74.164  -149.124
157.706     74.096  -143.402
160.000     73.945  -136.713
162.327     73.877  -129.287
164.688     73.886  -122.764
167.084     74.007  -115.775
169.514     74.088  -110.388
171.980     73.737  -103.953
174.481     73.558   -95.965
177.019     73.552   -88.430
179.594     73.572   -80.611
182.206     73.579   -72.266
184.856     73.633   -63.487
187.545     73.767   -55.604
190.273     73.943   -47.665
193.041     74.087   -40.432
195.849     74.132   -33.218
198.697     74.165   -25.319
201.587     74.235   -17.853
204.520     74.171   -10.775
207.494     74.036    -2.891
210.512     73.901     6.562
213.574     73.880    15.484
216.681     73.853    24.029
219.833     73.744    32.846
223.030     73.672    42.937
226.274     73.564    52.811
229.565     73.563    63.567
232.905     73.651    73.588
236.292     73.705    83.657
239.729     73.794    94.236
243.216     73.909   104.030
246.754     73.947   114.063
250.343     73.972   124.687
253.984     74.070   135.098
257.678     74.100   144.920
261.426     74.044   155.403
265.229     73.992   165.144
269.087     73.589   176.468
273.001     73.473  -170.382
276.972     73.533  -158.723
281.000     73.535  -146.863
285.088     73.490  -134.161
289.234     73.446  -121.642
293.441     73.497  -109.237
297.709     73.446   -97.435
302.040     73.375   -86.286
306.433     72.958   -73.400
310.890     72.914   -58.680
315.412     72.847   -46.241
320.000     72.562   -33.597
324.655     72.084   -19.352
329.377     71.932    -3.847
334.168     71.752    11.197
339.028     71.549    27.226
343.959     71.436    42.898
348.962     71.320    58.540
354.038     71.191    74.197
359.188     71.150    90.160
364.412     70.945   105.811
369.713     70.703   123.601
375.090     70.678   140.617
380.546     70.625   157.797
386.081     70.477   175.243
391.697     70.384  -166.918
397.394     70.416  -148.028
403.175     70.204  -131.129
409.039     70.070  -111.808
414.989     70.045   -92.350
421.025     70.083   -72.864
427.149     70.097   -53.601
433.362     70.156   -34.079
439.665     70.348   -13.884
446.060     70.362     5.567
452.548     70.497    25.644
459.131     70.596    46.079
465.809     70.834    67.250
472.584     70.954    87.394
479.458     71.098   108.147
486.432     71.298   128.965
493.507     71.448   150.176
500.686     71.601   172.060
507.968     71.765  -166.175
515.357     71.935  -144.555
522.853     72.085  -122.408
530.458     72.238   -99.639
538.174     72.375   -76.950
546.002     72.507   -54.254
553.943     72.617   -30.969
562.001     72.712    -7.175
570.175     72.808    17.258
578.469     72.870    42.188
586.883     72.917    67.058
595.419     72.942    91.949
604.080     72.943   117.353
612.866     72.920   143.270
621.780     72.870   169.837
630.824     72.788  -163.092
640.000     72.680  -135.893
649.309     72.537  -108.709
658.753     72.376   -80.838
668.335     72.166   -51.683
678.056     71.926   -22.399
687.919     71.651     7.627
697.925     71.339    38.533
708.077     70.997    69.689
718.376     70.635   101.848
728.825     70.245   135.065
739.426     69.847   169.411
750.181     69.447  -154.985
761.093     69.088  -118.230
772.163     68.797   -80.773
783.394     68.624   -42.165
794.789     68.575    -1.935
806.349     68.680    38.380
818.078     68.938    78.986
829.977     69.330   119.640
842.050     69.820   160.187
854.298     70.371  -159.571
866.724     70.939  -120.162
879.330     71.518   -80.336
892.120     72.068   -40.649
905.097     72.583    -1.002
918.262     73.041    38.691
931.618     73.449    78.492
945.169     73.793   118.517
958.917     74.069   158.739
972.864     74.281  -160.718
987.015     74.417  -119.850
1001.37     74.477   -78.094
1015.94     74.460   -35.885
1030.71     74.358     6.191
1045.71     74.172    49.279
1060.92     73.886    93.404
1076.35     73.508   137.499
1092.00     73.027  -177.802
1107.89     72.419  -131.914
1124.00     71.682   -85.361
1140.35     70.800   -38.054
1156.94     69.745    10.744
1173.77     68.492    60.571
1190.84     67.028   111.818
1208.16     65.318   164.806
1225.73     63.317  -138.717
1243.56     61.035   -77.416
1261.65     58.781    -9.790
1280.00     57.254    64.760
1298.62     57.161   141.231
1317.51     58.035  -146.633
1336.67     59.109   -79.637
1356.11     59.914   -16.372
1375.84     60.359    45.539
1395.85     60.467   107.130
1416.15     60.206   168.627
1436.75     59.631  -129.646
1457.65     58.658   -66.505
1478.85     57.275    -2.119
1500.36     55.420    64.033
1522.19     52.973   133.146
1544.33     49.568  -152.080
1566.79     45.017   -64.135
1589.58     41.931    52.260
1612.70     44.527   166.791
1636.16     47.988  -102.065
1659.95     50.334   -19.860
1684.10     51.983    60.574
1708.60     53.168   141.092
1733.45     54.028  -138.285
1758.66     54.648   -56.130
1784.24     55.077    27.605
1810.19     55.306   112.189
1836.52     55.433  -160.438
1863.24     55.515   -70.820
1890.34     55.694    21.070
1917.83     56.088   114.816
1945.73     56.693  -150.814
1974.03     57.447   -55.929
2002.74     58.227    38.329
2031.87     58.893   132.368
2061.43     59.382  -133.409
2091.41     59.640   -37.641
2121.83     59.685    60.237
2152.69     59.572   159.639
2184.01     59.413   -97.689
2215.77     59.313     8.092
2248.00     59.416   115.971
2280.70     59.725  -135.103
2313.87     60.187   -25.474
2347.53     60.690    84.814
2381.68     61.130  -164.835
2416.32     61.444   -53.334
2451.46     61.623    59.720
2487.12     61.646   174.550
2523.30     61.538   -68.446
2560.00     61.323    51.178
2597.24     61.046   173.172
2635.01     60.789   -61.745
2673.34     60.688    66.272
2712.23     60.833  -163.437
2751.68     61.191   -31.426
2791.70     61.661   101.099
2832.31     62.116  -125.872
2873.50     62.477     8.109
2915.30     62.711   143.589
2957.70     62.872   -78.488
3000.72     62.980    61.629
3044.37     63.075  -156.237
3088.65     63.211   -11.664
3133.58     63.388   134.571
3179.16     63.586   -77.278
3225.40     63.759    72.474
3272.31     63.823  -136.532
3319.91     63.702    16.626
3368.20     63.392   172.771
3417.19     62.967   -27.864
3466.89     62.614   135.566
3517.32     62.494   -57.269
3568.48     62.569   111.062
3620.39     62.631   -79.620
3673.05     62.548    92.093
3726.47     62.246   -93.063
3780.67     61.891    85.808
3835.67     61.738   -91.464
3891.46     61.893    94.172
3948.06     62.206   -79.467
4005.49     62.431   107.443
4063.75     62.381   -62.697
4122.86     62.111   130.565
4182.82     61.833   -31.874
4243.66     61.849   170.095
4305.39     62.135    12.813
4368.01     62.348  -144.098
4431.55     62.197    60.414
4496.01     61.563   -91.580
4561.40     60.572   121.944
4627.75     59.598   -17.884
4695.06     59.021  -151.831
4763.35     58.812    76.454
4832.64     58.604   -53.721
4902.93     58.198  -179.860
4974.24     57.846    59.774
5046.60     57.948   -56.779
5120.00     58.411  -172.437
5194.47     58.681    71.864
5270.03     58.392   -41.672
5346.68     57.644  -149.065
5424.45     57.094   111.445
5503.35     57.095    15.145
5583.40     57.060   -81.509
5664.61     56.436  -175.345
5747.01     55.266    97.575
5830.60     54.304    19.363
5915.41     54.149   -53.947
6001.45     54.140  -128.487
6088.74     53.308   159.187
6177.30     52.076    97.469
6267.15     51.659    45.119
6358.31     51.982    -5.769
6450.80     52.362   -54.355
6544.62     52.967   -99.609
6639.82     53.712  -143.277
6736.40     54.129   175.335
6834.38     54.132   137.549
6933.79     53.788   106.394
7034.64     53.571    82.698
7136.96     53.798    61.890
7240.77     53.729    43.561
7346.09     53.065    32.309
7452.94     52.620    30.153
7561.35     52.908    32.352
7671.33     53.067    35.297
7782.91     52.538    43.557
7896.12     51.987    61.335
8010.97     52.077    83.653
8127.49     51.538   107.793
8245.71     50.305   144.178
8365.65     50.264  -171.120
8487.33     50.082  -126.439
8610.78     49.632   -71.724
8736.03     50.327   -15.613
8863.09     49.784    35.851
8992.01     46.985    99.817
9122.80     44.888  -173.945
9255.50     44.368   -88.619
9390.12     41.773     5.715
9526.70     41.312   122.356
9665.27     42.325  -127.138
9805.86     43.350   -15.863
9948.49     43.267    92.617
10093.2     41.294  -143.441
10240.0     40.969     1.115
10388.9     42.075   138.398
10540.1     41.557   -77.913
10693.4     42.220    79.299
10848.9     43.282  -124.933
11006.7     43.433    39.484
11166.8     43.820  -151.595
11329.2     42.951    25.427
11494.0     42.352  -142.754
11661.2     41.876    53.944
11830.8     41.150   -95.535
12002.9     41.073   118.301
12177.5     40.331   -17.657
12354.6     40.213  -143.600
12534.3     39.696    93.711
12716.6     38.261   -14.338
12901.6     37.551  -108.650
13089.2     37.006   164.954
13279.6     36.733    94.712
13472.8     38.737    31.578
13668.8     40.786   -37.695
13867.6     41.672   -97.679
14069.3     42.037  -153.909
14273.9     41.094   166.664
14481.5     40.619   138.498
14692.2     40.067   122.783
14905.9     39.986   109.782
15122.7     39.037   109.468
15342.7     37.950   123.146
15565.8     36.912   157.754
15792.2     38.056  -163.612
16021.9     38.756  -118.314
16255.0     39.744   -68.343
16491.4     38.896    -9.683
16731.3     38.018    72.059
16974.7     38.024   162.519
17221.6     37.370  -101.848
17472.1     36.519     5.093
17726.2     34.944   124.192
17984.0     32.167   -92.785
18245.6     30.544    72.682
18511.0     28.980  -106.031
18780.2     31.201    96.356
19053.4     34.392   -73.854
19330.5     34.685   122.342
19611.7     33.856   -25.922
19897.0     31.517  -145.148
20186.4     32.668   102.479
20480.0     30.030   -10.522
20777.9     27.178   -76.086
21080.1     28.710  -131.369
21386.7     29.811   165.466
21697.8     29.448   116.124
22013.4     28.945    74.938
22333.6     25.353    51.976
22658.4     23.674    60.492
22988.0     23.410    83.470
23322.4     23.738    87.550
23661.6     23.003    81.013
24005.8     19.926  -171.153
24355.0     19.944  -160.253
24709.2     28.863  -150.397
25068.6     33.194   -92.643
25433.2     20.428   140.717
25803.2     21.448    39.364
26178.5     20.410   134.587
26559.3     17.770   -68.470
26945.6     16.182    39.370
27337.5     17.171     6.225
27735.2     17.824   -59.324
28138.6     16.400    96.182
28547.9     18.989   108.487
28963.1     22.828   105.428
29384.4     21.118    58.710
29811.8     19.744    69.470
30245.4     20.714   137.772
30685.3     17.610  -123.623
31131.7     21.071   -98.213
31584.5     18.027   131.776
32043.9     15.895  -174.460
32510.0     16.168   -46.729
32982.8     17.927  -158.641
33462.6     18.978    44.318
33949.3     16.995   -32.843
34443.1     16.663  -145.465
34944.1     15.849   -52.235
35452.4     15.542  -112.739
35968.0     13.418   129.270
36491.2     14.315   -98.141
37022.0     14.145    86.217
37560.5     14.488  -132.976
38106.8     14.863   -15.485
38661.1     14.871   155.214
39223.4     14.632  -139.788
39793.9     15.149    80.191
