Freq[Hz]     dBSPL  Phase[Deg]
5.00000    -11.566   -10.956
5.07273    -11.210   -11.048
5.14651    -10.824   -11.148
5.22137    -10.392   -11.260
5.29732     -9.941   -11.377
5.37437     -9.470   -11.501
5.45254     -8.999   -11.626
5.53185     -8.527   -11.754
5.61231     -8.056   -11.883
5.69394     -7.585   -12.014
5.77676     -7.113   -12.147
5.86079     -6.642   -12.282
5.94604     -6.171   -12.419
6.03252     -5.699   -12.558
6.12027     -5.228   -12.699
6.20929     -4.757   -12.841
6.29961     -4.285   -12.987
6.39124     -3.814   -13.134
6.48420     -3.343   -13.283
6.57851     -2.871   -13.434
6.67420     -2.400   -13.588
6.77128     -1.928   -13.744
6.86977     -1.457   -13.902
6.96969     -0.985   -14.063
7.07107     -0.514   -14.225
7.17392     -0.042   -14.391
7.27827      0.429   -14.558
7.38413      0.901   -14.728
7.49154      1.373   -14.901
7.60050      1.844   -15.076
7.71105      2.316   -15.253
7.82321      2.788   -15.434
7.93701      3.259   -15.616
8.05245      3.731   -15.802
8.16958      4.203   -15.990
8.28841      4.675   -16.181
8.40896      5.147   -16.375
8.53128      5.618   -16.571
8.65537      6.090   -16.771
8.78126      6.562   -16.973
8.90899      7.034   -17.178
9.03857      7.506   -17.387
9.17004      7.978   -17.598
9.30342      8.451   -17.812
9.43874      8.923   -18.030
9.57603      9.395   -18.251
9.71532      9.867   -18.475
9.85663     10.339   -18.702
10.0000     10.812   -18.932
10.1455     11.284   -19.166
10.2930     11.756   -19.404
10.4427     12.229   -19.645
10.5946     12.701   -19.889
10.7487     13.174   -20.137
10.9051     13.647   -20.389
11.0637     14.119   -20.644
11.2246     14.592   -20.903
11.3879     15.065   -21.166
11.5535     15.538   -21.433
11.7216     16.011   -21.703
11.8921     16.484   -21.978
12.0650     16.957   -22.257
12.2405     17.430   -22.540
12.4186     17.903   -22.827
12.5992     18.376   -23.118
12.7825     18.850   -23.414
12.9684     19.323   -23.713
13.1570     19.797   -24.018
13.3484     20.270   -24.327
13.5426     20.744   -24.640
13.7395     21.218   -24.958
13.9394     21.692   -25.281
14.1421     22.166   -25.609
14.3478     22.640   -25.941
14.5565     23.114   -26.279
14.7683     23.589   -26.621
14.9831     24.063   -26.969
15.2010     24.538   -27.322
15.4221     25.012   -27.680
15.6464     25.487   -28.043
15.8740     25.962   -28.412
16.1049     26.437   -28.787
16.3392     26.913   -29.167
16.5768     27.388   -29.553
16.8179     27.864   -29.944
17.0626     28.339   -30.342
17.3107     28.815   -30.746
17.5625     29.291   -31.155
17.8180     29.768   -31.571
18.0771     30.244   -31.994
18.3401     30.721   -32.422
18.6068     31.198   -32.858
18.8775     31.675   -33.300
19.1521     32.152   -33.749
19.4306     32.630   -34.204
19.7133     33.106   -34.681
20.0000     33.579   -35.195
20.2909     34.043   -35.747
20.5860     34.495   -36.296
20.8855     34.935   -36.708
21.1893     35.367   -36.928
21.4975     35.799   -37.065
21.8102     36.242   -37.224
22.1274     36.701   -37.472
22.4492     37.177   -37.815
22.7758     37.667   -38.203
23.1071     38.167   -38.651
23.4432     38.671   -39.145
23.7841     39.176   -39.773
24.1301     39.680   -40.676
24.4811     40.179   -41.742
24.8372     40.668   -42.786
25.1984     41.148   -43.720
25.5649     41.621   -44.483
25.9368     42.090   -45.161
26.3141     42.560   -45.868
26.6968     43.032   -46.659
27.0851     43.507   -47.570
27.4791     43.984   -48.570
27.8788     44.463   -49.583
28.2843     44.942   -50.535
28.6957     45.421   -51.441
29.1131     45.899   -52.359
29.5365     46.375   -53.319
29.9661     46.851   -54.363
30.4020     47.325   -55.419
30.8442     47.799   -56.458
31.2929     48.274   -57.522
31.7480     48.748   -58.641
32.2098     49.218   -59.879
32.6783     49.683   -61.226
33.1536     50.143   -62.411
33.6359     50.603   -63.263
34.1251     51.073   -63.737
34.6215     51.566   -64.195
35.1250     52.086   -64.936
35.6359     52.622   -66.077
36.1543     53.161   -67.425
36.6802     53.694   -68.836
37.2137     54.219   -70.195
37.7550     54.737   -71.496
38.3041     55.254   -72.880
38.8613     55.773   -74.539
39.4265     56.292   -76.277
40.0000     56.808   -77.917
40.5818     57.322   -79.349
41.1721     57.838   -80.731
41.7710     58.357   -82.239
42.3785     58.876   -84.004
42.9949     59.392   -86.020
43.6203     59.900   -88.190
44.2548     60.398   -90.375
44.8985     60.885   -92.438
45.5515     61.366   -94.317
46.2141     61.845   -96.068
46.8863     62.326   -97.794
47.5683     62.813   -99.579
48.2602     63.307  -101.481
48.9621     63.806  -103.505
49.6743     64.308  -105.619
50.3968     64.812  -107.803
51.1299     65.315  -110.041
51.8736     65.817  -112.323
52.6281     66.317  -114.662
53.3936     66.812  -117.078
54.1702     67.303  -119.586
54.9581     67.786  -122.170
55.7575     68.263  -124.826
56.5685     68.732  -127.560
57.3914     69.195  -130.345
58.2261     69.652  -133.169
59.0730     70.101  -136.056
59.9323     70.540  -139.031
60.8040     70.969  -142.092
61.6884     71.387  -145.226
62.5857     71.794  -148.429
63.4960     72.189  -151.701
64.4196     72.567  -155.026
65.3566     72.926  -158.398
66.3073     73.268  -161.812
67.2717     73.595  -165.255
68.2502     73.912  -168.714
69.2429     74.218  -172.202
70.2501     74.513  -175.737
71.2719     74.786  -179.321
72.3086     75.034   177.078
73.3603     75.257   173.514
74.4274     75.459   170.008
75.5099     75.644   166.565
76.6083     75.816   163.172
77.7226     75.976   159.804
78.8531     76.121   156.467
80.0000     76.252   153.164
81.1636     76.369   149.919
82.3442     76.474   146.755
83.5419     76.567   143.656
84.7570     76.650   140.620
85.9899     76.722   137.656
87.2406     76.784   134.766
88.5096     76.838   131.952
89.7970     76.887   129.214
91.1031     76.931   126.542
92.4282     76.974   123.923
93.7726     77.014   121.360
95.1366     77.048   118.850
96.5204     77.079   116.383
97.9243     77.105   113.957
99.3486     77.126   111.581
100.794     77.141   109.257
102.260     77.152   106.992
103.747     77.160   104.797
105.256     77.169   102.668
106.787     77.182   100.573
108.340     77.195    98.480
109.916     77.204    96.398
111.515     77.205    94.345
113.137     77.199    92.340
114.783     77.190    90.405
116.452     77.181    88.532
118.146     77.175    86.686
119.865     77.170    84.849
121.608     77.159    83.024
123.377     77.143    81.235
125.171     77.121    79.512
126.992     77.097    77.855
128.839     77.074    76.257
130.713     77.056    74.707
132.615     77.041    73.182
134.543     77.029    71.671
136.500     77.017    70.181
138.486     77.006    68.712
140.500     76.998    67.257
142.544     76.991    65.813
144.617     76.985    64.374
146.721     76.979    62.933
148.855     76.970    61.494
151.020     76.958    60.062
153.217     76.941    58.646
155.445     76.921    57.258
157.706     76.897    55.898
160.000     76.869    54.572
162.327     76.838    53.304
164.688     76.807    52.106
167.084     76.782    50.967
169.514     76.767    49.866
171.980     76.761    48.762
174.481     76.760    47.620
177.019     76.757    46.438
179.594     76.747    45.234
182.206     76.729    44.046
184.856     76.708    42.907
187.545     76.689    41.810
190.273     76.672    40.740
193.041     76.658    39.689
195.849     76.646    38.641
198.697     76.636    37.585
201.587     76.624    36.510
204.520     76.605    35.419
207.494     76.577    34.356
210.512     76.541    33.375
213.574     76.506    32.513
216.681     76.483    31.752
219.833     76.479    31.017
223.030     76.492    30.220
226.274     76.513    29.293
229.565     76.527    28.249
232.905     76.527    27.174
236.292     76.517    26.124
239.729     76.501    25.126
243.216     76.483    24.190
246.754     76.466    23.299
250.343     76.452    22.442
253.984     76.443    21.627
257.678     76.444    20.857
261.426     76.464    20.029
265.229     76.488    19.034
269.087     76.496    17.900
273.001     76.480    16.720
276.972     76.441    15.607
281.000     76.392    14.693
285.088     76.364    13.966
289.234     76.368    13.242
293.441     76.392    12.353
297.709     76.413    11.262
302.040     76.410    10.050
306.433     76.381     8.849
310.890     76.336     7.738
315.412     76.282     6.739
320.000     76.230     5.816
324.655     76.180     4.904
329.377     76.128     3.993
334.168     76.077     3.093
339.028     76.020     2.206
343.959     75.953     1.387
348.962     75.886     0.690
354.038     75.826     0.092
359.188     75.775    -0.437
364.412     75.744    -0.931
369.713     75.732    -1.496
375.090     75.727    -2.197
380.546     75.714    -3.003
386.081     75.689    -3.870
391.697     75.648    -4.743
397.394     75.586    -5.612
403.175     75.495    -6.368
409.039     75.390    -6.827
414.989     75.305    -6.987
421.025     75.264    -6.940
427.149     75.282    -6.833
433.362     75.359    -6.930
439.665     75.459    -7.439
446.060     75.547    -8.349
452.548     75.599    -9.511
459.131     75.607   -10.771
465.809     75.575   -11.960
472.584     75.524   -12.994
479.458     75.468   -13.933
486.432     75.404   -14.814
493.507     75.324   -15.593
500.686     75.237   -16.169
507.968     75.158   -16.504
515.357     75.098   -16.596
522.853     75.087   -16.477
530.458     75.146   -16.370
538.174     75.267   -16.525
546.002     75.433   -17.097
553.943     75.605   -18.191
562.001     75.732   -19.683
570.175     75.800   -21.336
578.469     75.801   -22.982
586.883     75.749   -24.409
595.419     75.679   -25.526
604.080     75.617   -26.492
612.866     75.575   -27.407
621.780     75.546   -28.302
630.824     75.515   -29.269
640.000     75.482   -30.245
649.309     75.462   -31.190
658.753     75.464   -32.277
668.335     75.476   -33.562
678.056     75.487   -35.051
687.919     75.482   -36.693
697.925     75.453   -38.342
708.077     75.415   -40.127
718.376     75.313   -42.251
728.825     75.076   -44.177
739.426     74.803   -45.305
750.181     74.584   -46.001
761.093     74.400   -46.682
772.163     74.234   -47.254
783.394     74.095   -47.685
794.789     73.990   -48.073
806.349     73.927   -48.476
818.078     73.891   -49.106
829.977     73.839   -50.028
842.050     73.751   -51.157
854.298     73.626   -52.523
866.724     73.430   -54.099
879.330     73.134   -55.552
892.120     72.767   -56.315
905.097     72.376   -56.040
918.262     72.053   -54.732
931.618     71.890   -52.792
945.169     71.890   -50.936
958.917     72.029   -49.852
972.864     72.181   -49.732
987.015     72.266   -49.917
1001.37     72.357   -49.888
1015.94     72.485   -49.814
1030.71     72.654   -49.838
1045.71     72.884   -50.267
1060.92     73.105   -51.671
1076.35     73.219   -54.034
1092.00     73.186   -56.659
1107.89     73.039   -59.042
1124.00     72.815   -60.954
1140.35     72.556   -62.052
1156.94     72.323   -62.353
1173.77     72.151   -62.201
1190.84     72.038   -61.810
1208.16     71.986   -61.405
1225.73     72.018   -61.214
1243.56     72.114   -61.454
1261.65     72.210   -62.240
1280.00     72.288   -63.241
1298.62     72.352   -64.173
1317.51     72.397   -65.220
1336.67     72.429   -66.408
1356.11     72.437   -67.722
1375.84     72.397   -69.276
1395.85     72.291   -70.855
1416.15     72.127   -72.073
1436.75     71.983   -72.783
1457.65     71.900   -73.287
1478.85     71.844   -73.905
1500.36     71.800   -74.574
1522.19     71.735   -75.189
1544.33     71.626   -75.724
1566.79     71.513   -76.028
1589.58     71.417   -75.881
1612.70     71.368   -75.269
1636.16     71.428   -74.521
1659.95     71.581   -74.013
1684.10     71.758   -73.883
1708.60     71.942   -74.184
1733.45     72.140   -74.756
1758.66     72.362   -75.498
1784.24     72.600   -76.512
1810.19     72.841   -77.543
1836.52     73.108   -78.483
1863.24     73.403   -79.758
1890.34     73.695   -81.562
1917.83     73.969   -83.768
1945.73     74.213   -86.297
1974.03     74.432   -89.054
2002.74     74.650   -91.938
2031.87     74.853   -95.006
2061.43     75.044   -98.307
2091.41     75.230  -101.922
2121.83     75.364  -105.807
2152.69     75.437  -109.637
2184.01     75.471  -113.389
2215.77     75.454  -117.209
2248.00     75.395  -120.902
2280.70     75.322  -124.386
2313.87     75.265  -127.891
2347.53     75.253  -131.532
2381.68     75.278  -135.424
2416.32     75.314  -139.869
2451.46     75.291  -144.813
2487.12     75.145  -149.763
2523.30     74.897  -154.332
2560.00     74.596  -158.334
2597.24     74.303  -161.793
2635.01     74.089  -164.913
2673.34     73.977  -168.102
2712.23     73.923  -171.787
2751.68     73.874  -176.036
2791.70     73.815   179.134
2832.31     73.736   173.786
2873.50     73.640   168.224
2915.30     73.544   162.563
2957.70     73.444   156.768
3000.72     73.325   150.719
3044.37     73.150   144.298
3088.65     72.894   137.710
3133.58     72.605   131.365
3179.16     72.388   124.637
3225.40     72.080   117.341
3272.31     71.697   110.277
3319.91     71.310   103.479
3368.20     70.963    96.867
3417.19     70.703    90.079
3466.89     70.533    82.602
3517.32     70.397    74.345
3568.48     70.270    65.496
3620.39     70.157    56.213
3673.05     70.068    46.622
3726.47     70.033    36.750
3780.67     70.064    26.404
3835.67     70.119    15.479
3891.46     70.151     4.245
3948.06     70.155    -6.831
4005.49     70.162   -17.434
4063.75     70.222   -27.533
4122.86     70.377   -37.351
4182.82     70.641   -47.220
4243.66     70.978   -57.468
4305.39     71.318   -68.194
4368.01     71.609   -79.149
4431.55     71.831   -90.062
4496.01     71.982  -100.710
4561.40     72.090  -110.920
4627.75     72.185  -120.780
4695.06     72.279  -130.365
4763.35     72.387  -139.551
4832.64     72.545  -148.413
4902.93     72.786  -157.446
4974.24     72.987  -167.156
5046.60     73.087  -176.422
5120.00     73.260   174.522
5194.47     73.489   164.931
5270.03     73.716   154.533
5346.68     73.874   143.345
5424.45     73.921   131.743
5503.35     73.852   120.107
5583.40     73.696   108.765
5664.61     73.511    97.797
5747.01     73.328    86.982
5830.60     73.152    76.246
5915.41     73.012    65.493
6001.45     72.902    54.491
6088.74     72.804    43.210
6177.30     72.721    31.605
6267.15     72.614    19.660
6358.31     72.460     7.666
6450.80     72.269    -4.203
6544.62     72.033   -15.875
6639.82     71.777   -27.076
6736.40     71.582   -37.824
6834.38     71.493   -48.556
6933.79     71.505   -59.582
7034.64     71.615   -71.103
7136.96     71.775   -83.447
7240.77     71.905   -96.749
7346.09     71.953  -110.706
7452.94     71.910  -124.905
7561.35     71.798  -139.104
7671.33     71.650  -153.119
7782.91     71.523  -166.936
7896.12     71.472   179.132
8010.97     71.481   164.694
8127.49     71.498   149.564
8245.71     71.482   133.770
8365.65     71.366   117.472
8487.33     71.102   101.152
8610.78     70.736    85.354
8736.03     70.354    70.098
8863.09     70.020    55.148
8992.01     69.787    40.278
9122.80     69.679    24.982
9255.50     69.641     8.815
9390.12     69.580    -8.074
9526.70     69.476   -25.285
9665.27     69.339   -42.627
9805.86     69.159   -60.042
9948.49     68.948   -77.385
10093.2     68.742   -94.630
10240.0     68.542  -112.082
10388.9     68.306  -129.718
10540.1     68.051  -147.168
10693.4     67.835  -164.516
10848.9     67.679   177.992
11006.7     67.618   160.122
11166.8     67.654   141.395
11329.2     67.702   121.620
11494.0     67.695   101.071
11661.2     67.616    79.970
11830.8     67.449    58.390
12002.9     67.195    36.542
12177.5     66.881    14.498
12354.6     66.491    -7.801
12534.3     65.998   -29.902
12716.6     65.463   -51.477
12901.6     64.944   -72.897
13089.2     64.437   -94.268
13279.6     63.978  -115.651
13472.8     63.529  -137.528
13668.8     62.996  -159.529
13867.6     62.447   178.823
14069.3     61.956   157.180
14273.9     61.585   135.606
14481.5     61.431   113.788
14692.2     61.432    90.893
14905.9     61.503    66.839
15122.7     61.550    41.510
15342.7     61.459    14.975
15565.8     61.211   -12.100
15792.2     60.810   -39.308
16021.9     60.285   -66.468
16255.0     59.688   -93.556
16491.4     59.057  -120.560
16731.3     58.462  -147.196
16974.7     57.929  -173.536
17221.6     57.438   159.998
17472.1     56.964   133.392
17726.2     56.464   106.578
17984.0     55.900    79.347
18245.6     55.264    52.141
18511.0     54.623    25.882
18780.2     54.093     0.683
19053.4     53.770   -24.543
19330.5     53.729   -50.567
19611.7     53.926   -77.721
19897.0     54.249  -106.685
20186.4     54.660  -137.596
20480.0     55.085  -169.854
20777.9     55.442   156.647
21080.1     55.762   121.657
21386.7     55.979    85.348
21697.8     55.994    47.933
22013.4     55.833     9.858
22333.6     55.467   -28.115
22658.4     54.910   -65.611
22988.0     54.296  -102.610
23322.4     53.663  -139.499
23661.6     53.000  -176.713
24005.8     52.322   145.892
24355.0     51.718   109.230
24709.2     51.373    74.421
25068.6     51.451    41.375
25433.2     52.024     8.968
25803.2     52.992   -24.447
26178.5     54.171   -60.924
26559.3     55.425  -101.581
26945.6     56.647  -146.116
27337.5     57.783   166.308
27735.2     58.770   116.347
28138.6     59.509    64.242
28547.9     59.924    10.112
28963.1     59.976   -45.702
29384.4     59.647  -102.659
29811.8     58.955  -160.074
30245.4     57.942   143.160
30685.3     56.727    88.247
31131.7     55.505    35.409
31584.5     54.408   -16.074
32043.9     53.480   -67.140
32510.0     52.718  -118.825
32982.8     51.980  -171.793
33462.6     51.067   134.484
33949.3     49.987    81.890
34443.1     49.024    32.333
34944.1     48.669   -14.738
35452.4     49.344   -62.165
35968.0     50.821  -112.896
36491.2     52.512  -169.689
37022.0     53.931   126.025
37560.5     54.828    55.495
38106.8     55.229   -10.400
38661.1     55.248   -71.483
39223.4     55.091  -115.735
39793.9     54.878  -148.056
