Freq[Hz]     dBSPL  Phase[Deg]
5.00000    -11.726   -12.447
5.07273    -11.370   -12.538
5.14651    -10.983   -12.636
5.22137    -10.550   -12.744
5.29732    -10.099   -12.858
5.37437     -9.626   -12.979
5.45254     -9.154   -13.100
5.53185     -8.682   -13.224
5.61231     -8.209   -13.349
5.69394     -7.737   -13.477
5.77676     -7.265   -13.606
5.86079     -6.792   -13.737
5.94604     -6.320   -13.869
6.03252     -5.848   -14.004
6.12027     -5.375   -14.141
6.20929     -4.903   -14.280
6.29961     -4.430   -14.421
6.39124     -3.958   -14.563
6.48420     -3.485   -14.708
6.57851     -3.013   -14.855
6.67420     -2.540   -15.005
6.77128     -2.068   -15.156
6.86977     -1.595   -15.309
6.96969     -1.123   -15.465
7.07107     -0.650   -15.623
7.17392     -0.178   -15.784
7.27827      0.295   -15.946
7.38413      0.768   -16.111
7.49154      1.240   -16.279
7.60050      1.713   -16.449
7.71105      2.186   -16.621
7.82321      2.659   -16.796
7.93701      3.131   -16.974
8.05245      3.604   -17.154
8.16958      4.077   -17.336
8.28841      4.550   -17.522
8.40896      5.023   -17.710
8.53128      5.496   -17.901
8.65537      5.969   -18.094
8.78126      6.442   -18.291
8.90899      6.915   -18.490
9.03857      7.388   -18.692
9.17004      7.861   -18.897
9.30342      8.334   -19.106
9.43874      8.807   -19.317
9.57603      9.281   -19.531
9.71532      9.754   -19.749
9.85663     10.227   -19.969
10.0000     10.701   -20.193
10.1455     11.174   -20.421
10.2930     11.648   -20.651
10.4427     12.121   -20.885
10.5946     12.595   -21.122
10.7487     13.068   -21.363
10.9051     13.542   -21.608
11.0637     14.016   -21.856
11.2246     14.490   -22.107
11.3879     14.963   -22.363
11.5535     15.437   -22.622
11.7216     15.911   -22.885
11.8921     16.385   -23.152
12.0650     16.860   -23.422
12.2405     17.334   -23.697
12.4186     17.808   -23.976
12.5992     18.282   -24.259
12.7825     18.757   -24.546
12.9684     19.231   -24.837
13.1570     19.706   -25.133
13.3484     20.181   -25.433
13.5426     20.655   -25.737
13.7395     21.130   -26.046
13.9394     21.605   -26.360
14.1421     22.080   -26.678
14.3478     22.556   -27.001
14.5565     23.031   -27.329
14.7683     23.506   -27.662
14.9831     23.982   -27.999
15.2010     24.457   -28.342
15.4221     24.933   -28.690
15.6464     25.409   -29.043
15.8740     25.885   -29.402
16.1049     26.361   -29.765
16.3392     26.838   -30.135
16.5768     27.314   -30.509
16.8179     27.791   -30.890
17.0626     28.268   -31.276
17.3107     28.745   -31.668
17.5625     29.222   -32.066
17.8180     29.699   -32.470
18.0771     30.177   -32.881
18.3401     30.654   -33.297
18.6068     31.132   -33.720
18.8775     31.611   -34.150
19.1521     32.089   -34.586
19.4306     32.567   -35.029
19.7133     33.044   -35.500
20.0000     33.517   -36.029
20.2909     33.980   -36.622
20.5860     34.427   -37.231
20.8855     34.859   -37.659
21.1893     35.277   -37.815
21.4975     35.692   -37.822
21.8102     36.121   -37.807
22.1274     36.572   -37.887
22.4492     37.051   -38.126
22.7758     37.556   -38.493
23.1071     38.076   -38.990
23.4432     38.600   -39.576
23.7841     39.117   -40.306
24.1301     39.621   -41.305
24.4811     40.112   -42.443
24.8372     40.590   -43.509
25.1984     41.061   -44.424
25.5649     41.531   -45.148
25.9368     42.003   -45.790
26.3141     42.477   -46.487
26.6968     42.953   -47.296
27.0851     43.428   -48.248
27.4791     43.903   -49.292
27.8788     44.377   -50.334
28.2843     44.850   -51.291
28.6957     45.325   -52.175
29.1131     45.802   -53.059
29.5365     46.282   -53.997
29.9661     46.765   -55.048
30.4020     47.246   -56.152
30.8442     47.721   -57.267
31.2929     48.189   -58.407
31.7480     48.648   -59.559
32.2098     49.102   -60.760
32.6783     49.558   -62.007
33.1536     50.023   -63.084
33.6359     50.501   -63.888
34.1251     50.992   -64.423
34.6215     51.496   -65.011
35.1250     52.010   -65.869
35.6359     52.530   -67.045
36.1543     53.059   -68.351
36.6802     53.593   -69.701
37.2137     54.126   -71.047
37.7550     54.654   -72.412
38.3041     55.173   -73.905
38.8613     55.684   -75.641
39.4265     56.192   -77.393
40.0000     56.701   -78.992
40.5818     57.216   -80.383
41.1721     57.734   -81.756
41.7710     58.255   -83.280
42.3785     58.773   -85.071
42.9949     59.287   -87.100
43.6203     59.793   -89.265
44.2548     60.292   -91.440
44.8985     60.783   -93.506
45.5515     61.268   -95.405
46.2141     61.749   -97.187
46.8863     62.232   -98.950
47.5683     62.720  -100.769
48.2602     63.212  -102.699
48.9621     63.710  -104.746
49.6743     64.211  -106.882
50.3968     64.714  -109.093
51.1299     65.217  -111.362
51.8736     65.719  -113.677
52.6281     66.216  -116.045
53.3936     66.709  -118.482
54.1702     67.196  -121.000
54.9581     67.678  -123.591
55.7575     68.155  -126.258
56.5685     68.625  -129.009
57.3914     69.090  -131.824
58.2261     69.548  -134.684
59.0730     69.997  -137.606
59.9323     70.436  -140.614
60.8040     70.863  -143.706
61.6884     71.279  -146.865
62.5857     71.684  -150.090
63.4960     72.078  -153.381
64.4196     72.454  -156.728
65.3566     72.812  -160.123
66.3073     73.151  -163.565
67.2717     73.475  -167.038
68.2502     73.787  -170.519
69.2429     74.089  -174.016
70.2501     74.381  -177.547
71.2719     74.654   178.877
72.3086     74.904   175.280
73.3603     75.131   171.711
74.4274     75.336   168.188
75.5099     75.524   164.720
76.6083     75.697   161.296
77.7226     75.856   157.899
78.8531     76.001   154.538
80.0000     76.131   151.220
81.1636     76.248   147.973
82.3442     76.356   144.818
83.5419     76.456   141.724
84.7570     76.546   138.667
85.9899     76.628   135.653
87.2406     76.697   132.687
88.5096     76.755   129.782
89.7970     76.804   126.955
91.1031     76.848   124.206
92.4282     76.889   121.517
93.7726     76.927   118.886
95.1366     76.958   116.312
96.5204     76.985   113.787
97.9243     77.007   111.316
99.3486     77.024   108.904
100.794     77.038   106.547
102.260     77.050   104.240
103.747     77.059   101.985
105.256     77.067    99.782
106.787     77.074    97.611
108.340     77.079    95.461
109.916     77.080    93.342
111.515     77.076    91.265
113.137     77.065    89.245
114.783     77.054    87.302
116.452     77.047    85.413
118.146     77.044    83.533
119.865     77.041    81.650
121.608     77.033    79.767
123.377     77.017    77.905
125.171     76.993    76.114
126.992     76.966    74.403
128.839     76.942    72.757
130.713     76.922    71.156
132.615     76.907    69.571
134.543     76.893    67.990
136.500     76.879    66.426
138.486     76.865    64.880
140.500     76.851    63.350
142.544     76.836    61.847
144.617     76.822    60.378
146.721     76.811    58.929
148.855     76.804    57.485
151.020     76.797    56.028
153.217     76.789    54.550
155.445     76.775    53.058
157.706     76.752    51.576
160.000     76.720    50.139
162.327     76.684    48.785
164.688     76.652    47.507
167.084     76.628    46.265
169.514     76.611    45.026
171.980     76.599    43.769
174.481     76.584    42.484
177.019     76.564    41.200
179.594     76.539    39.953
182.206     76.513    38.759
184.856     76.492    37.609
187.545     76.477    36.467
190.273     76.467    35.302
193.041     76.456    34.112
195.849     76.443    32.909
198.697     76.425    31.703
201.587     76.403    30.497
204.520     76.375    29.297
207.494     76.341    28.125
210.512     76.302    27.007
213.574     76.261    25.966
216.681     76.221    25.008
219.833     76.188    24.127
223.030     76.170    23.285
226.274     76.167    22.392
229.565     76.170    21.422
232.905     76.176    20.404
236.292     76.188    19.326
239.729     76.197    18.163
243.216     76.195    16.927
246.754     76.178    15.666
250.343     76.143    14.415
253.984     76.089    13.246
257.678     76.028    12.265
261.426     75.981    11.431
265.229     75.960    10.606
269.087     75.956     9.669
273.001     75.953     8.562
276.972     75.931     7.353
281.000     75.889     6.198
285.088     75.845     5.164
289.234     75.810     4.199
293.441     75.794     3.181
297.709     75.781     2.008
302.040     75.744     0.709
306.433     75.678    -0.549
310.890     75.591    -1.621
315.412     75.509    -2.474
320.000     75.454    -3.214
324.655     75.427    -4.022
329.377     75.416    -5.013
334.168     75.402    -6.218
339.028     75.360    -7.596
343.959     75.275    -8.987
348.962     75.157   -10.193
354.038     75.028   -11.162
359.188     74.903   -11.939
364.412     74.795   -12.555
369.713     74.723   -13.143
375.090     74.670   -13.880
380.546     74.607   -14.747
386.081     74.536   -15.629
391.697     74.458   -16.522
397.394     74.365   -17.485
403.175     74.250   -18.459
409.039     74.105   -19.322
414.989     73.937   -19.960
421.025     73.766   -20.227
427.149     73.634   -20.133
433.362     73.569   -19.939
439.665     73.565   -19.941
446.060     73.594   -20.361
452.548     73.606   -21.213
459.131     73.567   -22.255
465.809     73.474   -23.243
472.584     73.337   -23.917
479.458     73.206   -24.076
486.432     73.137   -23.932
493.507     73.132   -23.844
500.686     73.173   -23.999
507.968     73.235   -24.578
515.357     73.256   -25.600
522.853     73.211   -26.729
530.458     73.126   -27.700
538.174     73.021   -28.440
546.002     72.932   -28.931
553.943     72.874   -29.500
562.001     72.790   -30.288
570.175     72.665   -30.959
578.469     72.518   -31.401
586.883     72.360   -31.475
595.419     72.246   -31.115
604.080     72.226   -30.620
612.866     72.289   -30.332
621.780     72.397   -30.634
630.824     72.484   -31.584
640.000     72.507   -32.787
649.309     72.473   -34.019
658.753     72.398   -35.258
668.335     72.276   -36.294
678.056     72.132   -36.926
687.919     71.997   -37.269
697.925     71.878   -37.305
708.077     71.813   -37.098
718.376     71.781   -37.222
728.825     71.711   -37.546
739.426     71.641   -37.606
750.181     71.597   -37.583
761.093     71.575   -37.626
772.163     71.543   -37.610
783.394     71.502   -37.285
794.789     71.516   -36.697
806.349     71.611   -36.170
818.078     71.778   -35.957
829.977     71.976   -36.273
842.050     72.141   -36.992
854.298     72.265   -37.755
866.724     72.372   -38.654
879.330     72.445   -39.733
892.120     72.495   -40.620
905.097     72.577   -41.373
918.262     72.698   -42.304
931.618     72.831   -43.343
945.169     72.965   -44.431
958.917     73.101   -45.670
972.864     73.252   -47.117
987.015     73.425   -48.793
1001.37     73.611   -50.782
1015.94     73.802   -53.238
1030.71     73.941   -56.227
1045.71     73.968   -59.519
1060.92     73.885   -62.767
1076.35     73.710   -65.793
1092.00     73.460   -68.474
1107.89     73.187   -70.746
1124.00     72.902   -72.645
1140.35     72.590   -74.153
1156.94     72.264   -75.154
1173.77     71.956   -75.380
1190.84     71.735   -74.873
1208.16     71.658   -74.043
1225.73     71.746   -73.299
1243.56     71.984   -73.308
1261.65     72.261   -74.482
1280.00     72.476   -76.566
1298.62     72.585   -79.124
1317.51     72.584   -81.464
1336.67     72.566   -83.389
1356.11     72.585   -85.392
1375.84     72.612   -87.689
1395.85     72.612   -90.359
1416.15     72.539   -93.294
1436.75     72.383   -95.984
1457.65     72.176   -98.178
1478.85     71.997   -99.972
1500.36     71.877  -101.703
1522.19     71.739  -103.658
1544.33     71.556  -105.509
1566.79     71.348  -106.781
1589.58     71.152  -107.440
1612.70     71.060  -107.639
1636.16     71.129  -107.928
1659.95     71.299  -109.172
1684.10     71.464  -111.481
1708.60     71.563  -114.284
1733.45     71.589  -117.125
1758.66     71.571  -119.809
1784.24     71.516  -122.488
1810.19     71.411  -125.341
1836.52     71.255  -128.221
1863.24     71.047  -131.005
1890.34     70.797  -133.428
1917.83     70.555  -135.123
1945.73     70.362  -136.184
1974.03     70.255  -136.847
2002.74     70.273  -137.473
2031.87     70.415  -138.676
2061.43     70.645  -140.762
2091.41     70.894  -143.961
2121.83     71.048  -148.291
2152.69     71.047  -153.055
2184.01     70.912  -157.605
2215.77     70.686  -161.754
2248.00     70.411  -165.455
2280.70     70.089  -168.684
2313.87     69.771  -171.302
2347.53     69.542  -173.431
2381.68     69.372  -175.382
2416.32     69.218  -176.961
2451.46     69.133  -178.089
2487.12     69.125  -179.368
2523.30     69.118   178.903
2560.00     69.076   177.050
2597.24     69.046   175.141
2635.01     69.014   173.070
2673.34     68.930   171.165
2712.23     68.842   169.610
2751.68     68.791   168.080
2791.70     68.740   166.363
2832.31     68.670   164.514
2873.50     68.607   162.570
2915.30     68.572   160.427
2957.70     68.555   158.160
3000.72     68.586   156.044
3044.37     68.682   153.843
3088.65     68.753   151.428
3133.58     68.810   149.351
3179.16     68.970   146.814
3225.40     69.052   143.316
3272.31     69.039   139.765
3319.91     68.961   136.318
3368.20     68.800   133.311
3417.19     68.609   131.143
3466.89     68.443   129.677
3517.32     68.363   128.714
3568.48     68.415   127.702
3620.39     68.535   126.119
3673.05     68.653   123.876
3726.47     68.708   121.025
3780.67     68.643   118.047
3835.67     68.461   115.540
3891.46     68.232   113.844
3948.06     68.047   112.937
4005.49     67.959   112.394
4063.75     67.965   111.721
4122.86     68.025   110.509
4182.82     68.071   108.753
4243.66     68.063   106.719
4305.39     68.011   104.570
4368.01     67.940   102.551
4431.55     67.867   100.718
4496.01     67.792    98.893
4561.40     67.693    97.080
4627.75     67.580    95.305
4695.06     67.471    93.478
4763.35     67.357    91.674
4832.64     67.249    90.032
4902.93     67.169    88.371
4974.24     67.004    86.377
5046.60     66.729    85.127
5120.00     66.513    84.337
5194.47     66.354    83.336
5270.03     66.180    82.048
5346.68     65.935    80.603
5424.45     65.625    79.422
5503.35     65.281    78.754
5583.40     64.948    78.426
5664.61     64.662    78.271
5747.01     64.382    78.011
5830.60     64.051    77.723
5915.41     63.646    77.988
6001.45     63.219    79.130
6088.74     62.882    81.086
6177.30     62.696    83.435
6267.15     62.622    85.625
6358.31     62.608    87.528
6450.80     62.613    89.274
6544.62     62.596    90.807
6639.82     62.553    92.055
6736.40     62.501    92.998
6834.38     62.399    93.751
6933.79     62.233    94.878
7034.64     62.066    96.526
7136.96     61.898    98.421
7240.77     61.763   100.892
7346.09     61.807   103.625
7452.94     61.996   105.519
7561.35     62.177   106.859
7671.33     62.378   108.228
7782.91     62.585   108.933
7896.12     62.644   109.014
8010.97     62.565   109.395
8127.49     62.483   109.979
8245.71     62.418   110.318
8365.65     62.351   110.577
8487.33     62.306   110.870
8610.78     62.283   110.879
8736.03     62.218   110.842
8863.09     62.137   111.461
8992.01     62.151   112.230
9122.80     62.226   112.343
9255.50     62.274   112.038
9390.12     62.289   111.284
9526.70     62.197   109.824
9665.27     61.920   108.410
9805.86     61.515   107.821
9948.49     61.018   108.048
10093.2     60.462   109.390
10240.0     59.972   111.918
10388.9     59.556   115.133
10540.1     59.222   119.177
10693.4     59.066   123.730
10848.9     59.046   128.125
11006.7     59.167   132.380
11166.8     59.450   135.989
11329.2     59.789   138.650
11494.0     60.167   140.563
11661.2     60.549   141.434
11830.8     60.843   141.317
12002.9     61.026   140.460
12177.5     61.073   138.915
12354.6     60.956   137.065
12534.3     60.678   135.414
12716.6     60.261   134.282
12901.6     59.742   133.886
13089.2     59.162   134.212
13279.6     58.544   135.020
13472.8     57.886   136.417
13668.8     57.206   138.716
13867.6     56.542   141.961
14069.3     55.945   146.322
14273.9     55.483   151.505
14481.5     55.164   156.619
14692.2     54.950   161.354
14905.9     54.786   165.732
15122.7     54.624   169.823
15342.7     54.492   173.807
15565.8     54.413   177.607
15792.2     54.355  -179.000
16021.9     54.286  -176.127
16255.0     54.142  -173.405
16491.4     53.908  -170.269
16731.3     53.641  -166.546
16974.7     53.361  -162.237
17221.6     53.085  -157.508
17472.1     52.873  -152.683
17726.2     52.754  -148.133
17984.0     52.715  -144.106
18245.6     52.689  -140.735
18511.0     52.597  -138.176
18780.2     52.362  -135.815
19053.4     51.917  -132.571
19330.5     51.357  -128.099
19611.7     50.876  -122.571
19897.0     50.610  -116.710
20186.4     50.636  -111.875
20480.0     50.873  -109.105
20777.9     51.031  -108.324
21080.1     50.902  -108.262
21386.7     50.483  -107.248
21697.8     49.763  -103.847
22013.4     48.767   -97.304
22333.6     47.725   -87.923
22658.4     46.850   -77.084
22988.0     46.248   -66.358
23322.4     46.059   -56.117
23661.6     46.279   -46.542
24005.8     46.763   -38.422
24355.0     47.352   -31.808
24709.2     47.793   -26.423
25068.6     47.960   -22.290
25433.2     47.907   -18.771
25803.2     47.692   -14.521
26178.5     47.410    -9.005
26559.3     47.184    -2.875
26945.6     47.055     3.130
27337.5     46.947     8.659
27735.2     46.774    14.124
28138.6     46.554    20.235
28547.9     46.331    27.333
28963.1     46.169    35.478
29384.4     46.119    43.657
29811.8     46.139    50.586
30245.4     46.150    55.892
30685.3     46.025    59.932
31131.7     45.752    64.342
31584.5     45.525    70.590
32043.9     45.431    78.582
32510.0     45.446    87.941
32982.8     45.646    97.863
33462.6     45.979   106.956
33949.3     46.318   114.785
34443.1     46.692   121.682
34944.1     47.197   127.580
35452.4     47.829   132.356
35968.0     48.520   135.712
36491.2     49.151   137.117
37022.0     49.557   137.037
37560.5     49.618   137.526
38106.8     49.395   139.491
38661.1     48.941   145.406
39223.4     48.428   152.994
39793.9     47.924   161.667
