Freq[Hz]     dBSPL  Phase[Deg]
5.00000    -12.414   -13.304
5.07273    -12.057   -13.396
5.14651    -11.667   -13.496
5.22137    -11.231   -13.607
5.29732    -10.776   -13.724
5.37437    -10.300   -13.848
5.45254     -9.825   -13.973
5.53185     -9.349   -14.100
5.61231     -8.873   -14.229
5.69394     -8.397   -14.360
5.77676     -7.921   -14.492
5.86079     -7.445   -14.627
5.94604     -6.969   -14.763
6.03252     -6.493   -14.902
6.12027     -6.017   -15.042
6.20929     -5.541   -15.185
6.29961     -5.065   -15.330
6.39124     -4.589   -15.476
6.48420     -4.112   -15.625
6.57851     -3.636   -15.776
6.67420     -3.160   -15.930
6.77128     -2.684   -16.085
6.86977     -2.208   -16.243
6.96969     -1.732   -16.403
7.07107     -1.255   -16.566
7.17392     -0.779   -16.730
7.27827     -0.303   -16.898
7.38413      0.173   -17.067
7.49154      0.650   -17.239
7.60050      1.126   -17.414
7.71105      1.602   -17.591
7.82321      2.079   -17.771
7.93701      2.555   -17.954
8.05245      3.032   -18.139
8.16958      3.508   -18.326
8.28841      3.985   -18.517
8.40896      4.461   -18.710
8.53128      4.938   -18.907
8.65537      5.415   -19.106
8.78126      5.891   -19.308
8.90899      6.368   -19.512
9.03857      6.845   -19.720
9.17004      7.321   -19.931
9.30342      7.798   -20.145
9.43874      8.275   -20.363
9.57603      8.752   -20.583
9.71532      9.229   -20.807
9.85663      9.706   -21.033
10.0000     10.183   -21.264
10.1455     10.660   -21.497
10.2930     11.137   -21.734
10.4427     11.614   -21.975
10.5946     12.091   -22.219
10.7487     12.569   -22.467
10.9051     13.046   -22.718
11.0637     13.523   -22.973
11.2246     14.001   -23.232
11.3879     14.478   -23.494
11.5535     14.956   -23.760
11.7216     15.433   -24.031
11.8921     15.911   -24.305
12.0650     16.389   -24.583
12.2405     16.867   -24.866
12.4186     17.345   -25.153
12.5992     17.823   -25.443
12.7825     18.301   -25.739
12.9684     18.779   -26.038
13.1570     19.257   -26.342
13.3484     19.736   -26.651
13.5426     20.214   -26.964
13.7395     20.692   -27.281
13.9394     21.171   -27.604
14.1421     21.650   -27.931
14.3478     22.129   -28.263
14.5565     22.608   -28.600
14.7683     23.087   -28.942
14.9831     23.566   -29.289
15.2010     24.045   -29.641
15.4221     24.525   -29.999
15.6464     25.004   -30.362
15.8740     25.484   -30.730
16.1049     25.964   -31.104
16.3392     26.444   -31.484
16.5768     26.924   -31.869
16.8179     27.404   -32.260
17.0626     27.884   -32.657
17.3107     28.365   -33.060
17.5625     28.846   -33.469
17.8180     29.327   -33.885
18.0771     29.808   -34.306
18.3401     30.289   -34.735
18.6068     30.771   -35.169
18.8775     31.253   -35.611
19.1521     31.735   -36.059
19.4306     32.217   -36.514
19.7133     32.699   -36.993
20.0000     33.181   -37.517
20.2909     33.658   -38.089
20.5860     34.125   -38.665
20.8855     34.576   -39.090
21.1893     35.007   -39.300
21.4975     35.427   -39.418
21.8102     35.850   -39.552
22.1274     36.289   -39.769
22.4492     36.757   -40.061
22.7758     37.255   -40.369
23.1071     37.776   -40.744
23.4432     38.308   -41.192
23.7841     38.840   -41.825
24.1301     39.361   -42.816
24.4811     39.867   -44.014
24.8372     40.355   -45.174
25.1984     40.830   -46.188
25.5649     41.299   -46.986
25.9368     41.766   -47.677
26.3141     42.239   -48.403
26.6968     42.716   -49.234
27.0851     43.197   -50.212
27.4791     43.678   -51.296
27.8788     44.157   -52.393
28.2843     44.632   -53.404
28.6957     45.107   -54.339
29.1131     45.583   -55.267
29.5365     46.062   -56.242
29.9661     46.544   -57.333
30.4020     47.025   -58.471
30.8442     47.500   -59.610
31.2929     47.972   -60.768
31.7480     48.438   -61.950
32.2098     48.901   -63.226
32.6783     49.363   -64.609
33.1536     49.819   -65.844
33.6359     50.274   -66.759
34.1251     50.735   -67.295
34.6215     51.220   -67.780
35.1250     51.735   -68.504
35.6359     52.269   -69.609
36.1543     52.811   -70.929
36.6802     53.353   -72.344
37.2137     53.888   -73.753
37.7550     54.414   -75.156
38.3041     54.936   -76.655
38.8613     55.459   -78.411
39.4265     55.975   -80.228
40.0000     56.486   -81.906
40.5818     56.994   -83.338
41.1721     57.506   -84.699
41.7710     58.027   -86.176
42.3785     58.557   -87.927
42.9949     59.089   -89.967
43.6203     59.617   -92.210
44.2548     60.133   -94.526
44.8985     60.631   -96.771
45.5515     61.112   -98.844
46.2141     61.583  -100.764
46.8863     62.052  -102.619
47.5683     62.527  -104.486
48.2602     63.012  -106.440
48.9621     63.504  -108.504
49.6743     64.004  -110.656
50.3968     64.508  -112.886
51.1299     65.013  -115.180
51.8736     65.518  -117.523
52.6281     66.019  -119.932
53.3936     66.516  -122.428
54.1702     67.007  -125.019
54.9581     67.492  -127.694
55.7575     67.969  -130.446
56.5685     68.439  -133.283
57.3914     68.900  -136.178
58.2261     69.353  -139.107
59.0730     69.797  -142.084
59.9323     70.234  -145.137
60.8040     70.660  -148.270
61.6884     71.077  -151.471
62.5857     71.483  -154.741
63.4960     71.879  -158.085
64.4196     72.258  -161.500
65.3566     72.617  -164.979
66.3073     72.957  -168.515
67.2717     73.279  -172.084
68.2502     73.587  -175.654
69.2429     73.886  -179.213
70.2501     74.176   177.225
71.2719     74.453   173.632
72.3086     74.709   170.008
73.3603     74.942   166.386
74.4274     75.153   162.781
75.5099     75.345   159.206
76.6083     75.520   155.661
77.7226     75.681   152.141
78.8531     75.826   148.658
80.0000     75.955   145.218
81.1636     76.068   141.850
82.3442     76.169   138.590
83.5419     76.262   135.414
84.7570     76.347   132.297
85.9899     76.426   129.237
87.2406     76.496   126.224
88.5096     76.558   123.257
89.7970     76.611   120.352
91.1031     76.657   117.513
92.4282     76.700   114.734
93.7726     76.740   112.012
95.1366     76.773   109.345
96.5204     76.801   106.727
97.9243     76.826   104.159
99.3486     76.846   101.647
100.794     76.863    99.190
102.260     76.877    96.778
103.747     76.888    94.415
105.256     76.897    92.107
106.787     76.905    89.845
108.340     76.912    87.615
109.916     76.918    85.419
111.515     76.920    83.263
113.137     76.919    81.154
114.783     76.919    79.106
116.452     76.924    77.097
118.146     76.934    75.081
119.865     76.945    73.037
121.608     76.950    70.964
123.377     76.942    68.893
125.171     76.921    66.887
126.992     76.894    64.971
128.839     76.869    63.138
130.713     76.849    61.360
132.615     76.834    59.594
134.543     76.821    57.820
136.500     76.804    56.054
138.486     76.782    54.324
140.500     76.759    52.647
142.544     76.735    51.036
144.617     76.717    49.487
146.721     76.707    47.972
148.855     76.705    46.453
151.020     76.707    44.902
153.217     76.710    43.311
155.445     76.706    41.696
157.706     76.696    40.085
160.000     76.679    38.506
162.327     76.658    36.996
164.688     76.642    35.554
167.084     76.635    34.142
169.514     76.638    32.720
171.980     76.645    31.254
174.481     76.651    29.724
177.019     76.647    28.163
179.594     76.633    26.616
182.206     76.612    25.123
184.856     76.590    23.704
187.545     76.576    22.338
190.273     76.569    20.981
193.041     76.567    19.616
195.849     76.569    18.241
198.697     76.575    16.837
201.587     76.584    15.375
204.520     76.588    13.840
207.494     76.582    12.255
210.512     76.560    10.664
213.574     76.524     9.125
216.681     76.477     7.670
219.833     76.425     6.298
223.030     76.374     5.029
226.274     76.333     3.850
229.565     76.306     2.717
232.905     76.294     1.629
236.292     76.304     0.551
239.729     76.334    -0.632
243.216     76.371    -1.994
246.754     76.396    -3.519
250.343     76.399    -5.138
253.984     76.378    -6.753
257.678     76.335    -8.267
261.426     76.288    -9.620
265.229     76.256   -10.863
269.087     76.245   -12.130
273.001     76.242   -13.484
276.972     76.236   -14.911
281.000     76.220   -16.347
285.088     76.200   -17.713
289.234     76.187   -19.028
293.441     76.190   -20.354
297.709     76.202   -21.783
302.040     76.205   -23.350
306.433     76.191   -24.935
310.890     76.168   -26.471
315.412     76.146   -27.967
320.000     76.131   -29.452
324.655     76.126   -31.041
329.377     76.114   -32.756
334.168     76.088   -34.517
339.028     76.051   -36.301
343.959     76.004   -38.096
348.962     75.945   -39.911
354.038     75.865   -41.747
359.188     75.759   -43.498
364.412     75.641   -45.085
369.713     75.529   -46.506
375.090     75.433   -47.841
380.546     75.352   -49.200
386.081     75.275   -50.590
391.697     75.190   -52.010
397.394     75.098   -53.444
403.175     75.002   -54.839
409.039     74.900   -56.235
414.989     74.784   -57.623
421.025     74.649   -58.846
427.149     74.515   -59.783
433.362     74.416   -60.462
439.665     74.373   -61.073
446.060     74.383   -61.874
452.548     74.410   -63.000
459.131     74.421   -64.361
465.809     74.418   -65.843
472.584     74.393   -67.401
479.458     74.338   -68.872
486.432     74.282   -70.172
493.507     74.234   -71.424
500.686     74.195   -72.620
507.968     74.184   -73.784
515.357     74.192   -75.156
522.853     74.191   -76.727
530.458     74.181   -78.331
538.174     74.171   -79.982
546.002     74.176   -81.537
553.943     74.247   -82.991
562.001     74.397   -84.873
570.175     74.551   -87.523
578.469     74.618   -90.825
586.883     74.548   -94.395
595.419     74.353   -97.577
604.080     74.080   -99.896
612.866     73.825  -101.303
621.780     73.696  -102.190
630.824     73.687  -103.245
640.000     73.725  -104.882
649.309     73.760  -107.036
658.753     73.747  -109.396
668.335     73.686  -111.669
678.056     73.629  -113.687
687.919     73.622  -115.530
697.925     73.681  -117.563
708.077     73.797  -120.286
718.376     73.856  -123.975
728.825     73.744  -127.838
739.426     73.570  -131.110
750.181     73.411  -134.169
761.093     73.227  -137.215
772.163     73.020  -140.087
783.394     72.780  -142.714
794.789     72.491  -144.791
806.349     72.215  -146.087
818.078     72.007  -146.905
829.977     71.890  -147.548
842.050     71.911  -148.443
854.298     72.028  -150.099
866.724     72.159  -152.407
879.330     72.304  -155.306
892.120     72.396  -158.988
905.097     72.347  -163.047
918.262     72.148  -166.910
931.618     71.836  -170.234
945.169     71.510  -172.785
958.917     71.266  -174.494
972.864     71.152  -175.877
987.015     71.140  -177.623
1001.37     71.143  -179.696
1015.94     71.113   177.841
1030.71     71.010   174.837
1045.71     70.830   171.861
1060.92     70.627   169.077
1076.35     70.387   166.345
1092.00     70.056   164.262
1107.89     69.724   163.406
1124.00     69.544   163.122
1140.35     69.516   162.587
1156.94     69.596   161.704
1173.77     69.745   159.786
1190.84     69.799   156.662
1208.16     69.705   153.639
1225.73     69.591   151.066
1243.56     69.474   148.763
1261.65     69.393   147.075
1280.00     69.429   145.450
1298.62     69.498   143.455
1317.51     69.609   141.352
1336.67     69.785   138.633
1356.11     69.920   135.250
1375.84     70.023   131.821
1395.85     70.082   128.234
1416.15     70.060   124.702
1436.75     70.036   121.279
1457.65     70.003   117.534
1478.85     69.921   113.734
1500.36     69.799   109.908
1522.19     69.621   106.285
1544.33     69.431   103.467
1566.79     69.292   101.085
1589.58     69.229    98.853
1612.70     69.258    96.648
1636.16     69.371    93.854
1659.95     69.518    90.078
1684.10     69.609    85.467
1708.60     69.626    80.608
1733.45     69.593    75.834
1758.66     69.496    71.100
1784.24     69.335    66.531
1810.19     69.103    62.381
1836.52     68.796    58.962
1863.24     68.498    56.498
1890.34     68.346    54.748
1917.83     68.425    53.064
1945.73     68.729    50.766
1974.03     69.166    47.155
2002.74     69.582    41.835
2031.87     69.854    35.270
2061.43     69.942    28.240
2091.41     69.857    21.263
2121.83     69.649    15.003
2152.69     69.413     9.989
2184.01     69.238     5.855
2215.77     69.191     1.745
2248.00     69.270    -3.062
2280.70     69.380    -9.067
2313.87     69.432   -16.099
2347.53     69.371   -23.349
2381.68     69.161   -30.194
2416.32     68.844   -36.289
2451.46     68.531   -41.288
2487.12     68.288   -45.556
2523.30     68.181   -49.828
2560.00     68.237   -54.231
2597.24     68.348   -59.014
2635.01     68.449   -64.515
2673.34     68.556   -70.465
2712.23     68.587   -76.643
2751.68     68.475   -82.989
2791.70     68.243   -89.103
2832.31     67.876   -94.612
2873.50     67.398   -99.477
2915.30     66.914  -103.858
2957.70     66.479  -107.778
3000.72     66.134  -111.146
3044.37     65.899  -114.333
3088.65     65.672  -117.629
3133.58     65.415  -120.692
3179.16     65.248  -124.097
3225.40     65.069  -128.733
3272.31     64.832  -133.913
3319.91     64.566  -139.204
3368.20     64.281  -144.487
3417.19     63.977  -149.516
3466.89     63.636  -154.215
3517.32     63.236  -158.613
3568.48     62.777  -162.394
3620.39     62.308  -165.326
3673.05     61.909  -167.476
3726.47     61.667  -169.029
3780.67     61.656  -170.551
3835.67     61.833  -172.655
3891.46     62.120  -175.601
3948.06     62.473  -179.603
4005.49     62.827   175.419
4063.75     63.138   169.773
4122.86     63.409   163.314
4182.82     63.587   155.795
4243.66     63.573   147.425
4305.39     63.323   138.873
4368.01     62.830   130.867
4431.55     62.110   124.240
4496.01     61.267   119.901
4561.40     60.497   117.862
4627.75     60.020   117.555
4695.06     59.968   118.259
4763.35     60.285   118.643
4832.64     60.819   117.665
4902.93     61.416   114.758
4974.24     61.834   109.491
5046.60     61.947   103.566
5120.00     61.972    97.501
5194.47     61.941    91.020
5270.03     61.784    84.369
5346.68     61.501    77.956
5424.45     61.125    72.347
5503.35     60.718    67.579
5583.40     60.401    63.216
5664.61     60.215    58.783
5747.01     60.106    53.505
5830.60     59.987    47.154
5915.41     59.746    40.215
6001.45     59.345    33.178
6088.74     58.824    26.406
6177.30     58.238    19.899
6267.15     57.692    13.490
6358.31     57.296     7.293
6450.80     57.107     1.368
6544.62     57.138    -4.418
6639.82     57.310   -10.085
6736.40     57.543   -15.814
6834.38     57.784   -21.940
6933.79     57.925   -28.555
7034.64     57.925   -35.365
7136.96     57.795   -41.857
7240.77     57.503   -47.833
7346.09     57.089   -53.338
7452.94     56.675   -58.453
7561.35     56.355   -63.566
7671.33     56.184   -69.313
7782.91     56.208   -76.380
7896.12     56.423   -85.139
8010.97     56.681   -95.308
8127.49     56.805  -106.146
8245.71     56.709  -116.779
8365.65     56.354  -126.214
8487.33     55.816  -133.797
8610.78     55.330  -139.975
8736.03     55.159  -145.421
8863.09     55.460  -150.718
8992.01     56.120  -157.246
9122.80     56.779  -166.192
9255.50     57.122  -178.048
9390.12     56.989   167.065
9526.70     56.334   150.403
9665.27     55.231   133.632
9805.86     53.816   117.982
9948.49     52.298   104.958
10093.2     50.916    94.569
10240.0     49.661    85.885
10388.9     48.471    79.244
10540.1     47.466    74.463
10693.4     46.676    71.045
10848.9     46.199    69.465
11006.7     46.223    69.066
11166.8     46.656    68.124
11329.2     47.264    65.533
11494.0     47.825    60.712
11661.2     48.181    53.876
11830.8     48.345    46.206
12002.9     48.417    38.462
12177.5     48.438    30.628
12354.6     48.433    22.532
12534.3     48.310    13.985
12716.6     47.920     5.727
12901.6     47.279    -0.866
13089.2     46.439    -5.170
13279.6     45.492    -6.996
13472.8     44.634    -6.822
13668.8     44.006    -5.653
13867.6     43.758    -4.464
14069.3     43.907    -4.939
14273.9     44.262    -7.974
14481.5     44.537   -13.417
14692.2     44.494   -20.767
14905.9     44.006   -27.642
15122.7     43.139   -31.691
15342.7     42.358   -32.269
15565.8     42.274   -30.532
15792.2     43.006   -29.668
16021.9     44.148   -32.228
16255.0     45.045   -39.209
16491.4     45.287   -49.386
16731.3     44.840   -58.979
16974.7     43.844   -65.202
17221.6     42.581   -67.449
17472.1     41.572   -66.319
17726.2     41.156   -64.315
17984.0     41.200   -65.274
18245.6     41.195   -70.527
18511.0     40.601   -78.766
18780.2     39.345   -86.994
19053.4     37.539   -90.138
19330.5     35.209   -86.577
19611.7     32.888   -78.640
19897.0     31.307   -67.530
20186.4     30.742   -56.527
20480.0     31.558   -50.014
20777.9     33.807   -47.331
21080.1     36.649   -47.087
21386.7     38.819   -49.619
21697.8     40.203   -53.746
22013.4     40.836   -59.219
22333.6     40.517   -67.169
22658.4     39.409   -77.593
22988.0     37.922   -90.650
23322.4     36.344  -107.235
23661.6     34.896  -123.165
24005.8     33.511  -137.968
24355.0     32.397  -136.237
24709.2     31.443  -123.316
25068.6     30.700  -105.254
25433.2     30.688   -76.094
25803.2     31.519   -52.558
26178.5     32.821   -42.896
26559.3     34.251   -38.137
26945.6     35.361   -44.245
27337.5     35.732   -53.190
27735.2     35.286   -60.461
28138.6     34.238   -62.272
28547.9     32.894   -58.839
28963.1     31.862   -50.823
29384.4     32.046   -42.640
29811.8     33.906   -23.676
30245.4     36.662    -3.552
30685.3     39.227     8.948
31131.7     41.310    21.835
31584.5     42.951    25.236
32043.9     44.126    14.618
32510.0     44.897     2.996
32982.8     45.350   -11.503
33462.6     45.472   -25.045
33949.3     45.202   -38.613
34443.1     44.485   -51.532
34944.1     43.374   -63.778
35452.4     42.034   -76.193
35968.0     40.714   -90.475
36491.2     39.566  -107.040
37022.0     38.470  -124.469
37560.5     37.572  -140.035
38106.8     36.810  -149.458
38661.1     36.742  -153.165
39223.4     36.946  -151.743
39793.9     37.344  -146.068
