Freq[Hz]     dBSPL  Phase[Deg]
5.00000    -11.813   -14.848
5.07273    -11.458   -14.934
5.14651    -11.070   -15.026
5.22137    -10.637   -15.127
5.29732    -10.185   -15.233
5.37437     -9.712   -15.344
5.45254     -9.240   -15.456
5.53185     -8.767   -15.570
5.61231     -8.294   -15.685
5.69394     -7.822   -15.803
5.77676     -7.349   -15.922
5.86079     -6.876   -16.042
5.94604     -6.404   -16.165
6.03252     -5.931   -16.289
6.12027     -5.458   -16.415
6.20929     -4.985   -16.543
6.29961     -4.512   -16.673
6.39124     -4.040   -16.805
6.48420     -3.567   -16.939
6.57851     -3.094   -17.074
6.67420     -2.621   -17.212
6.77128     -2.148   -17.351
6.86977     -1.675   -17.493
6.96969     -1.202   -17.637
7.07107     -0.729   -17.783
7.17392     -0.256   -17.931
7.27827      0.217   -18.081
7.38413      0.690   -18.233
7.49154      1.163   -18.388
7.60050      1.636   -18.545
7.71105      2.109   -18.704
7.82321      2.582   -18.865
7.93701      3.055   -19.029
8.05245      3.529   -19.195
8.16958      4.002   -19.364
8.28841      4.475   -19.535
8.40896      4.948   -19.709
8.53128      5.422   -19.885
8.65537      5.895   -20.064
8.78126      6.368   -20.245
8.90899      6.842   -20.429
9.03857      7.315   -20.616
9.17004      7.789   -20.805
9.30342      8.262   -20.998
9.43874      8.736   -21.193
9.57603      9.209   -21.391
9.71532      9.683   -21.592
9.85663     10.157   -21.795
10.0000     10.631   -22.002
10.1455     11.104   -22.212
10.2930     11.578   -22.425
10.4427     12.052   -22.641
10.5946     12.526   -22.860
10.7487     13.000   -23.083
10.9051     13.474   -23.309
11.0637     13.948   -23.538
11.2246     14.422   -23.770
11.3879     14.897   -24.006
11.5535     15.371   -24.245
11.7216     15.845   -24.488
11.8921     16.320   -24.735
12.0650     16.794   -24.985
12.2405     17.269   -25.239
12.4186     17.743   -25.496
12.5992     18.218   -25.758
12.7825     18.693   -26.023
12.9684     19.168   -26.292
13.1570     19.643   -26.565
13.3484     20.118   -26.842
13.5426     20.593   -27.124
13.7395     21.068   -27.409
13.9394     21.544   -27.699
14.1421     22.019   -27.993
14.3478     22.495   -28.292
14.5565     22.970   -28.595
14.7683     23.446   -28.902
14.9831     23.922   -29.214
15.2010     24.398   -29.531
15.4221     24.874   -29.852
15.6464     25.350   -30.179
15.8740     25.827   -30.510
16.1049     26.303   -30.846
16.3392     26.780   -31.187
16.5768     27.257   -31.534
16.8179     27.734   -31.885
17.0626     28.211   -32.242
17.3107     28.688   -32.605
17.5625     29.166   -32.973
17.8180     29.644   -33.346
18.0771     30.122   -33.726
18.3401     30.600   -34.111
18.6068     31.078   -34.502
18.8775     31.556   -34.899
19.1521     32.035   -35.303
19.4306     32.514   -35.712
19.7133     32.992   -36.148
20.0000     33.467   -36.635
20.2909     33.932   -37.187
20.5860     34.384   -37.766
20.8855     34.820   -38.208
21.1893     35.238   -38.433
21.4975     35.648   -38.529
21.8102     36.064   -38.575
22.1274     36.497   -38.646
22.4492     36.960   -38.785
22.7758     37.457   -38.977
23.1071     37.978   -39.296
23.4432     38.514   -39.761
23.7841     39.048   -40.440
24.1301     39.568   -41.454
24.4811     40.070   -42.639
24.8372     40.554   -43.746
25.1984     41.026   -44.682
25.5649     41.494   -45.398
25.9368     41.964   -46.015
26.3141     42.441   -46.684
26.6968     42.921   -47.479
27.0851     43.404   -48.439
27.4791     43.886   -49.510
27.8788     44.364   -50.590
28.2843     44.837   -51.576
28.6957     45.310   -52.474
29.1131     45.785   -53.355
29.5365     46.265   -54.281
29.9661     46.750   -55.324
30.4020     47.233   -56.430
30.8442     47.709   -57.555
31.2929     48.178   -58.704
31.7480     48.636   -59.863
32.2098     49.090   -61.074
32.6783     49.548   -62.338
33.1536     50.011   -63.437
33.6359     50.485   -64.253
34.1251     50.970   -64.778
34.6215     51.470   -65.334
35.1250     51.984   -66.161
35.6359     52.507   -67.330
36.1543     53.036   -68.647
36.6802     53.569   -70.004
37.2137     54.100   -71.341
37.7550     54.626   -72.680
38.3041     55.146   -74.133
38.8613     55.663   -75.840
39.4265     56.176   -77.590
40.0000     56.687   -79.195
40.5818     57.200   -80.574
41.1721     57.718   -81.916
41.7710     58.241   -83.396
42.3785     58.767   -85.151
42.9949     59.292   -87.179
43.6203     59.811   -89.380
44.2548     60.318   -91.625
44.8985     60.811   -93.780
45.5515     61.291   -95.759
46.2141     61.764   -97.594
46.8863     62.238   -99.376
47.5683     62.717  -101.187
48.2602     63.204  -103.093
48.9621     63.699  -105.114
49.6743     64.200  -107.229
50.3968     64.704  -109.428
51.1299     65.209  -111.694
51.8736     65.711  -114.009
52.6281     66.209  -116.380
53.3936     66.700  -118.822
54.1702     67.187  -121.340
54.9581     67.669  -123.929
55.7575     68.146  -126.595
56.5685     68.618  -129.353
57.3914     69.083  -132.178
58.2261     69.539  -135.051
59.0730     69.986  -137.982
59.9323     70.424  -140.995
60.8040     70.849  -144.087
61.6884     71.263  -147.244
62.5857     71.666  -150.461
63.4960     72.057  -153.741
64.4196     72.433  -157.076
65.3566     72.791  -160.465
66.3073     73.131  -163.907
67.2717     73.455  -167.388
68.2502     73.765  -170.879
69.2429     74.066  -174.376
70.2501     74.358  -177.892
71.2719     74.634   178.551
72.3086     74.887   174.967
73.3603     75.117   171.398
74.4274     75.324   167.863
75.5099     75.513   164.372
76.6083     75.686   160.924
77.7226     75.846   157.501
78.8531     75.991   154.112
80.0000     76.121   150.761
81.1636     76.236   147.479
82.3442     76.339   144.293
83.5419     76.433   141.182
84.7570     76.518   138.124
85.9899     76.594   135.120
87.2406     76.660   132.170
88.5096     76.716   129.282
89.7970     76.764   126.470
91.1031     76.806   123.735
92.4282     76.846   121.064
93.7726     76.883   118.449
95.1366     76.915   115.887
96.5204     76.942   113.373
97.9243     76.965   110.909
99.3486     76.983   108.505
100.794     76.998   106.156
102.260     77.011   103.854
103.747     77.020   101.604
105.256     77.028    99.409
106.787     77.036    97.253
108.340     77.042    95.125
109.916     77.047    93.032
111.515     77.047    90.978
113.137     77.044    88.970
114.783     77.041    87.022
116.452     77.041    85.114
118.146     77.044    83.205
119.865     77.046    81.284
121.608     77.041    79.359
123.377     77.026    77.459
125.171     77.002    75.637
126.992     76.976    73.904
128.839     76.955    72.237
130.713     76.939    70.602
132.615     76.928    68.954
134.543     76.915    67.285
136.500     76.895    65.623
138.486     76.868    64.002
140.500     76.838    62.451
142.544     76.807    60.981
144.617     76.781    59.588
146.721     76.766    58.239
148.855     76.760    56.892
151.020     76.760    55.515
153.217     76.761    54.097
155.445     76.758    52.651
157.706     76.749    51.196
160.000     76.733    49.760
162.327     76.713    48.373
164.688     76.695    47.029
167.084     76.681    45.703
169.514     76.670    44.379
171.980     76.660    43.041
174.481     76.644    41.688
177.019     76.623    40.356
179.594     76.599    39.068
182.206     76.575    37.825
184.856     76.555    36.611
187.545     76.541    35.395
190.273     76.527    34.157
193.041     76.510    32.914
195.849     76.491    31.682
198.697     76.472    30.463
201.587     76.453    29.233
204.520     76.430    27.975
207.494     76.397    26.717
210.512     76.354    25.507
213.574     76.304    24.397
216.681     76.256    23.396
219.833     76.217    22.475
223.030     76.194    21.578
226.274     76.186    20.623
229.565     76.183    19.579
232.905     76.179    18.486
236.292     76.175    17.363
239.729     76.169    16.203
243.216     76.155    15.005
246.754     76.132    13.782
250.343     76.096    12.549
253.984     76.043    11.359
257.678     75.978    10.293
261.426     75.917     9.391
265.229     75.877     8.591
269.087     75.863     7.750
273.001     75.865     6.761
276.972     75.859     5.612
281.000     75.834     4.396
285.088     75.790     3.226
289.234     75.737     2.153
293.441     75.692     1.174
297.709     75.661     0.190
302.040     75.631    -0.865
306.433     75.595    -1.933
310.890     75.552    -2.984
315.412     75.503    -3.987
320.000     75.460    -4.924
324.655     75.431    -5.893
329.377     75.407    -6.954
334.168     75.383    -8.104
339.028     75.352    -9.366
343.959     75.303   -10.712
348.962     75.228   -12.037
354.038     75.137   -13.289
359.188     75.031   -14.456
364.412     74.919   -15.498
369.713     74.818   -16.459
375.090     74.723   -17.437
380.546     74.621   -18.403
386.081     74.519   -19.304
391.697     74.416   -20.182
397.394     74.306   -21.071
403.175     74.189   -21.955
409.039     74.053   -22.785
414.989     73.902   -23.444
421.025     73.757   -23.831
427.149     73.644   -24.000
433.362     73.581   -24.143
439.665     73.560   -24.493
446.060     73.550   -25.198
452.548     73.512   -26.152
459.131     73.437   -27.128
465.809     73.332   -28.045
472.584     73.199   -28.767
479.458     73.060   -29.126
486.432     72.953   -29.222
493.507     72.881   -29.186
500.686     72.862   -29.068
507.968     72.912   -29.135
515.357     72.989   -29.675
522.853     73.050   -30.627
530.458     73.088   -31.842
538.174     73.092   -33.219
546.002     73.084   -34.578
553.943     73.094   -36.065
562.001     73.078   -37.902
570.175     72.993   -39.952
578.469     72.815   -41.937
586.883     72.541   -43.442
595.419     72.231   -44.272
604.080     71.953   -44.468
612.866     71.763   -44.231
621.780     71.686   -44.198
630.824     71.655   -44.636
640.000     71.615   -45.261
649.309     71.570   -45.920
658.753     71.530   -46.430
668.335     71.508   -46.779
678.056     71.512   -47.199
687.919     71.535   -47.807
697.925     71.560   -48.696
708.077     71.575   -49.987
718.376     71.551   -51.739
728.825     71.444   -53.565
739.426     71.315   -55.045
750.181     71.200   -56.448
761.093     71.054   -57.980
772.163     70.830   -59.259
783.394     70.547   -59.781
794.789     70.304   -59.433
806.349     70.195   -58.622
818.078     70.226   -57.938
829.977     70.347   -57.668
842.050     70.510   -57.981
854.298     70.675   -58.790
866.724     70.845   -60.018
879.330     70.999   -61.858
892.120     71.073   -64.202
905.097     71.019   -66.733
918.262     70.828   -68.786
931.618     70.564   -69.900
945.169     70.315   -70.212
958.917     70.166   -69.698
972.864     70.213   -69.262
987.015     70.358   -69.931
1001.37     70.459   -71.269
1015.94     70.525   -73.083
1030.71     70.515   -75.262
1045.71     70.433   -77.129
1060.92     70.368   -78.665
1076.35     70.332   -80.276
1092.00     70.291   -82.463
1107.89     70.168   -85.436
1124.00     69.891   -88.915
1140.35     69.414   -92.494
1156.94     68.723   -95.022
1173.77     67.954   -95.411
1190.84     67.315   -94.123
1208.16     66.931   -92.085
1225.73     66.861   -90.309
1243.56     66.995   -90.300
1261.65     67.087   -92.643
1280.00     66.932   -96.563
1298.62     66.431  -100.359
1317.51     65.700  -101.988
1336.67     64.994  -101.430
1356.11     64.465   -99.820
1375.84     64.253   -97.779
1395.85     64.380   -97.119
1416.15     64.613   -99.212
1436.75     64.782  -103.587
1457.65     64.781  -109.672
1478.85     64.585  -116.469
1500.36     64.205  -123.410
1522.19     63.537  -130.020
1544.33     62.598  -134.604
1566.79     61.611  -136.925
1589.58     60.790  -137.801
1612.70     60.323  -137.252
1636.16     60.351  -137.254
1659.95     60.715  -140.930
1684.10     60.905  -147.848
1708.60     60.618  -155.058
1733.45     59.937  -160.807
1758.66     59.017  -164.111
1784.24     58.202  -164.363
1810.19     58.009  -164.527
1836.52     58.356  -168.369
1863.24     58.686  -175.217
1890.34     58.704   177.040
1917.83     58.345   170.736
1945.73     57.748   167.229
1974.03     57.327   166.521
2002.74     57.391   167.513
2031.87     57.977   167.289
2061.43     58.824   164.110
2091.41     59.591   159.472
2121.83     60.185   154.768
2152.69     60.728   150.541
2184.01     61.273   146.765
2215.77     61.727   143.036
2248.00     61.883   140.324
2280.70     61.619   139.520
2313.87     61.151   140.291
2347.53     60.750   143.148
2381.68     60.538   147.280
2416.32     60.697   150.576
2451.46     61.148   153.305
2487.12     61.675   156.325
2523.30     62.284   159.448
2560.00     63.069   162.114
2597.24     64.017   163.498
2635.01     64.987   162.995
2673.34     65.823   161.258
2712.23     66.491   159.386
2751.68     67.017   157.843
2791.70     67.382   156.858
2832.31     67.539   156.200
2873.50     67.405   155.689
2915.30     66.980   156.056
2957.70     66.427   157.510
3000.72     65.877   159.697
3044.37     65.398   162.746
3088.65     65.068   166.668
3133.58     64.899   171.150
3179.16     64.947   175.439
3225.40     65.077   178.733
3272.31     65.164  -178.738
3319.91     65.095  -176.358
3368.20     64.902  -173.412
3417.19     64.642  -170.111
3466.89     64.299  -166.616
3517.32     63.930  -163.013
3568.48     63.531  -159.664
3620.39     63.024  -156.120
3673.05     62.433  -151.957
3726.47     61.797  -147.394
3780.67     61.071  -142.271
3835.67     60.213  -136.342
3891.46     59.153  -129.856
3948.06     57.774  -122.011
4005.49     56.160  -110.402
4063.75     54.712   -92.496
4122.86     54.284   -67.154
4182.82     55.742   -40.579
4243.66     58.267   -22.263
4305.39     60.563   -14.402
4368.01     62.090   -14.765
4431.55     62.692   -19.124
4496.01     62.432   -22.783
4561.40     61.541   -21.799
4627.75     60.271   -13.487
4695.06     59.133     2.234
4763.35     58.913    21.343
4832.64     59.842    38.329
4902.93     61.327    49.871
4974.24     62.568    55.020
5046.60     63.196    56.279
5120.00     63.230    57.052
5194.47     62.714    60.166
5270.03     61.845    66.935
5346.68     60.944    77.133
5424.45     60.370    89.320
5503.35     60.206   101.271
5583.40     60.235   111.331
5664.61     60.202   119.550
5747.01     59.909   127.372
5830.60     59.389   136.467
5915.41     58.850   147.684
6001.45     58.434   160.674
6088.74     58.232   174.340
6177.30     58.182  -172.396
6267.15     58.066  -159.655
6358.31     57.777  -146.443
6450.80     57.387  -131.729
6544.62     57.093  -115.835
6639.82     57.113  -100.210
6736.40     57.433   -86.389
6834.38     57.732   -75.544
6933.79     57.643   -66.513
7034.64     56.946   -55.742
7136.96     55.620   -41.025
7240.77     53.957   -21.105
7346.09     52.640     3.991
7452.94     52.456    29.035
7561.35     53.035    48.900
7671.33     53.528    65.111
7782.91     53.822    80.554
7896.12     53.997    95.921
8010.97     53.978   111.604
8127.49     53.895   128.024
8245.71     53.882   143.302
8365.65     53.800   156.666
8487.33     53.581   170.246
8610.78     53.430  -175.123
8736.03     53.355  -159.430
8863.09     53.187  -143.090
8992.01     52.926  -129.835
9122.80     52.452  -125.330
9255.50     51.829  -135.355
9390.12     51.614  -165.031
9526.70     51.946   145.239
9665.27     52.495    78.338
9805.86     53.211     0.415
9948.49     53.958   -76.422
10093.2     54.166  -140.415
10240.0     53.755   175.514
10388.9     53.021   154.209
10540.1     51.974   154.055
10693.4     50.883   170.484
10848.9     50.336  -165.248
11006.7     50.318  -139.842
11166.8     50.594  -113.436
11329.2     51.075   -88.512
11494.0     51.520   -66.282
11661.2     51.911   -42.909
11830.8     52.366   -19.917
12002.9     52.647     1.983
12177.5     52.794    26.867
12354.6     52.922    53.084
12534.3     52.865    78.570
12716.6     52.585   105.056
12901.6     52.131   132.182
13089.2     51.605   159.171
13279.6     51.143  -173.541
13472.8     50.841  -145.625
13668.8     50.885  -117.202
13867.6     51.210   -89.023
14069.3     51.606   -62.390
14273.9     51.732   -37.870
14481.5     51.318   -13.039
14692.2     50.532    15.274
14905.9     49.684    47.641
15122.7     49.036    82.679
15342.7     48.871   119.240
15565.8     49.257   156.481
15792.2     50.012  -167.177
16021.9     50.870  -132.830
16255.0     51.466  -101.625
16491.4     51.607   -74.845
16731.3     51.546   -52.943
16974.7     51.318   -36.986
17221.6     50.771   -26.130
17472.1     50.137   -18.924
17726.2     49.457   -14.875
17984.0     48.813   -11.768
18245.6     48.569    -8.039
18511.0     48.801    -2.320
18780.2     49.382     7.500
19053.4     49.873    21.955
19330.5     49.938    40.789
19611.7     49.544    63.970
19897.0     48.574    91.789
20186.4     47.101   125.457
20480.0     45.425   166.532
20777.9     43.637  -147.015
21080.1     41.877   -98.055
21386.7     40.281   -47.266
21697.8     38.785     3.444
22013.4     37.743    57.055
22333.6     38.034   118.245
22658.4     39.402  -177.268
22988.0     40.792  -114.370
23322.4     41.870   -56.955
23661.6     42.340    -8.377
24005.8     41.994    34.908
24355.0     41.327    78.249
24709.2     40.789   126.473
25068.6     40.461  -177.815
25433.2     40.356  -117.283
25803.2     40.535   -53.371
26178.5     41.152    13.313
26559.3     42.067    79.176
26945.6     42.992   140.640
27337.5     43.779  -165.394
27735.2     44.179  -122.229
28138.6     43.963   -93.632
28547.9     43.185   -82.133
28963.1     42.143   -86.211
29384.4     40.978  -102.424
29811.8     39.814  -124.985
30245.4     38.843  -143.547
30685.3     37.700  -150.185
31131.7     36.315  -140.280
31584.5     35.673  -110.760
32043.9     36.741   -67.197
32510.0     39.444   -15.700
32982.8     42.594    41.400
33462.6     45.200    98.354
33949.3     46.989   153.234
34443.1     47.977  -151.811
34944.1     48.346   -96.166
35452.4     48.399   -38.198
35968.0     48.505    22.871
36491.2     48.945    85.739
37022.0     49.664   149.418
37560.5     50.332  -145.912
38106.8     50.823   -86.141
38661.1     50.843   -29.271
39223.4     50.637    15.452
39793.9     50.323    51.966
