Freq[Hz]     dBSPL  Phase[Deg]
5.00000    -11.117   -12.372
5.07273    -10.763   -12.459
5.14651    -10.377   -12.553
5.22137     -9.947   -12.656
5.29732     -9.498   -12.763
5.37437     -9.029   -12.876
5.45254     -8.560   -12.991
5.53185     -8.090   -13.107
5.61231     -7.621   -13.225
5.69394     -7.152   -13.344
5.77676     -6.683   -13.465
5.86079     -6.213   -13.588
5.94604     -5.744   -13.713
6.03252     -5.275   -13.840
6.12027     -4.805   -13.968
6.20929     -4.336   -14.099
6.29961     -3.867   -14.231
6.39124     -3.397   -14.365
6.48420     -2.928   -14.501
6.57851     -2.459   -14.639
6.67420     -1.989   -14.780
6.77128     -1.520   -14.922
6.86977     -1.050   -15.066
6.96969     -0.581   -15.212
7.07107     -0.111   -15.361
7.17392      0.358   -15.511
7.27827      0.828   -15.664
7.38413      1.298   -15.819
7.49154      1.767   -15.977
7.60050      2.237   -16.136
7.71105      2.706   -16.298
7.82321      3.176   -16.463
7.93701      3.646   -16.629
8.05245      4.116   -16.798
8.16958      4.585   -16.970
8.28841      5.055   -17.144
8.40896      5.525   -17.321
8.53128      5.995   -17.500
8.65537      6.465   -17.682
8.78126      6.935   -17.867
8.90899      7.405   -18.054
9.03857      7.875   -18.244
9.17004      8.345   -18.437
9.30342      8.815   -18.632
9.43874      9.285   -18.831
9.57603      9.755   -19.032
9.71532     10.225   -19.236
9.85663     10.695   -19.444
10.0000     11.166   -19.654
10.1455     11.636   -19.867
10.2930     12.107   -20.084
10.4427     12.577   -20.304
10.5946     13.047   -20.527
10.7487     13.518   -20.753
10.9051     13.989   -20.982
11.0637     14.459   -21.215
11.2246     14.930   -21.452
11.3879     15.401   -21.692
11.5535     15.872   -21.935
11.7216     16.343   -22.182
11.8921     16.814   -22.433
12.0650     17.285   -22.687
12.2405     17.756   -22.945
12.4186     18.227   -23.207
12.5992     18.698   -23.473
12.7825     19.170   -23.742
12.9684     19.641   -24.016
13.1570     20.113   -24.294
13.3484     20.584   -24.576
13.5426     21.056   -24.862
13.7395     21.528   -25.152
13.9394     22.000   -25.447
14.1421     22.472   -25.746
14.3478     22.944   -26.049
14.5565     23.416   -26.357
14.7683     23.888   -26.670
14.9831     24.361   -26.987
15.2010     24.833   -27.309
15.4221     25.306   -27.636
15.6464     25.779   -27.968
15.8740     26.252   -28.305
16.1049     26.725   -28.647
16.3392     27.198   -28.994
16.5768     27.672   -29.346
16.8179     28.145   -29.704
17.0626     28.619   -30.067
17.3107     29.093   -30.435
17.5625     29.567   -30.810
17.8180     30.041   -31.190
18.0771     30.516   -31.575
18.3401     30.990   -31.967
18.6068     31.465   -32.365
18.8775     31.940   -32.768
19.1521     32.415   -33.179
19.4306     32.891   -33.595
19.7133     33.364   -34.035
20.0000     33.832   -34.522
20.2909     34.286   -35.063
20.5860     34.724   -35.620
20.8855     35.150   -36.040
21.1893     35.568   -36.248
21.4975     35.988   -36.330
21.8102     36.425   -36.376
22.1274     36.881   -36.473
22.4492     37.356   -36.679
22.7758     37.850   -36.981
23.1071     38.354   -37.405
23.4432     38.864   -37.937
23.7841     39.372   -38.623
24.1301     39.874   -39.559
24.4811     40.367   -40.621
24.8372     40.850   -41.621
25.1984     41.327   -42.485
25.5649     41.799   -43.175
25.9368     42.272   -43.788
26.3141     42.746   -44.449
26.6968     43.221   -45.215
27.0851     43.698   -46.116
27.4791     44.175   -47.110
27.8788     44.652   -48.109
28.2843     45.129   -49.038
28.6957     45.606   -49.906
29.1131     46.083   -50.778
29.5365     46.562   -51.693
29.9661     47.041   -52.699
30.4020     47.519   -53.736
30.8442     47.994   -54.775
31.2929     48.465   -55.842
31.7480     48.930   -56.942
32.2098     49.392   -58.113
32.6783     49.853   -59.338
33.1536     50.322   -60.392
33.6359     50.802   -61.166
34.1251     51.296   -61.658
34.6215     51.802   -62.211
35.1250     52.318   -63.058
35.6359     52.840   -64.246
36.1543     53.368   -65.568
36.6802     53.896   -66.910
37.2137     54.421   -68.202
37.7550     54.943   -69.466
38.3041     55.461   -70.838
38.8613     55.974   -72.471
39.4265     56.488   -74.156
40.0000     57.004   -75.728
40.5818     57.523   -77.113
41.1721     58.044   -78.482
41.7710     58.563   -79.996
42.3785     59.079   -81.764
42.9949     59.588   -83.759
43.6203     60.088   -85.875
44.2548     60.581   -87.981
44.8985     61.068   -89.955
45.5515     61.552   -91.755
46.2141     62.036   -93.443
46.8863     62.524   -95.123
47.5683     63.016   -96.874
48.2602     63.513   -98.747
48.9621     64.014  -100.742
49.6743     64.518  -102.830
50.3968     65.022  -104.992
51.1299     65.526  -107.208
51.8736     66.027  -109.468
52.6281     66.524  -111.775
53.3936     67.017  -114.142
54.1702     67.505  -116.583
54.9581     67.988  -119.094
55.7575     68.467  -121.681
56.5685     68.941  -124.355
57.3914     69.409  -127.093
58.2261     69.871  -129.883
59.0730     70.323  -132.743
59.9323     70.765  -135.690
60.8040     71.194  -138.721
61.6884     71.610  -141.819
62.5857     72.016  -144.977
63.4960     72.409  -148.191
64.4196     72.787  -151.449
65.3566     73.147  -154.747
66.3073     73.492  -158.090
67.2717     73.824  -161.469
68.2502     74.144  -164.874
69.2429     74.454  -168.319
70.2501     74.749  -171.817
71.2719     75.022  -175.364
72.3086     75.269  -178.921
73.3603     75.492   177.570
74.4274     75.695   174.130
75.5099     75.882   170.763
76.6083     76.057   167.449
77.7226     76.220   164.158
78.8531     76.369   160.893
80.0000     76.504   157.659
81.1636     76.626   154.478
82.3442     76.736   151.372
83.5419     76.834   148.326
84.7570     76.920   145.338
85.9899     76.995   142.421
87.2406     77.058   139.583
88.5096     77.113   136.830
89.7970     77.162   134.163
91.1031     77.209   131.568
92.4282     77.255   129.026
93.7726     77.298   126.537
95.1366     77.336   124.099
96.5204     77.370   121.703
97.9243     77.399   119.353
99.3486     77.422   117.057
100.794     77.441   114.818
102.260     77.457   112.637
103.747     77.470   110.522
105.256     77.485   108.465
106.787     77.501   106.434
108.340     77.517   104.406
109.916     77.527   102.397
111.515     77.531   100.423
113.137     77.527    98.503
114.783     77.519    96.662
116.452     77.512    94.887
118.146     77.508    93.146
119.865     77.504    91.430
121.608     77.497    89.739
123.377     77.486    88.090
125.171     77.474    86.502
126.992     77.462    84.972
128.839     77.454    83.484
130.713     77.449    82.025
132.615     77.447    80.574
134.543     77.445    79.124
136.500     77.442    77.688
138.486     77.436    76.273
140.500     77.431    74.883
142.544     77.424    73.522
144.617     77.419    72.192
146.721     77.416    70.882
148.855     77.413    69.586
151.020     77.411    68.295
153.217     77.407    67.010
155.445     77.400    65.733
157.706     77.390    64.466
160.000     77.373    63.226
162.327     77.351    62.041
164.688     77.330    60.923
167.084     77.311    59.866
169.514     77.300    58.856
171.980     77.298    57.860
174.481     77.299    56.849
177.019     77.302    55.824
179.594     77.304    54.788
182.206     77.302    53.754
184.856     77.298    52.737
187.545     77.294    51.735
190.273     77.287    50.755
193.041     77.280    49.806
195.849     77.272    48.889
198.697     77.267    48.002
201.587     77.263    47.130
204.520     77.258    46.266
207.494     77.251    45.442
210.512     77.245    44.689
213.574     77.249    44.013
216.681     77.269    43.374
219.833     77.310    42.682
223.030     77.360    41.847
226.274     77.403    40.832
229.565     77.422    39.718
232.905     77.417    38.637
236.292     77.397    37.661
239.729     77.375    36.829
243.216     77.362    36.116
246.754     77.363    35.441
250.343     77.371    34.757
253.984     77.383    34.079
257.678     77.403    33.433
261.426     77.437    32.741
265.229     77.476    31.938
269.087     77.507    31.026
273.001     77.522    30.031
276.972     77.513    29.064
281.000     77.494    28.250
285.088     77.486    27.585
289.234     77.499    26.963
293.441     77.528    26.254
297.709     77.559    25.403
302.040     77.574    24.471
306.433     77.573    23.563
310.890     77.563    22.763
315.412     77.558    22.085
320.000     77.570    21.449
324.655     77.598    20.732
329.377     77.625    19.886
334.168     77.644    18.932
339.028     77.642    17.945
343.959     77.622    17.050
348.962     77.604    16.294
354.038     77.597    15.573
359.188     77.593    14.840
364.412     77.593    14.110
369.713     77.596    13.301
375.090     77.586    12.438
380.546     77.567    11.631
386.081     77.549    10.863
391.697     77.529    10.102
397.394     77.499     9.339
403.175     77.449     8.660
409.039     77.398     8.185
414.989     77.368     7.862
421.025     77.367     7.606
427.149     77.400     7.318
433.362     77.458     6.844
439.665     77.511     6.114
446.060     77.539     5.202
452.548     77.535     4.254
459.131     77.502     3.389
465.809     77.455     2.721
472.584     77.420     2.256
479.458     77.410     1.853
486.432     77.418     1.423
493.507     77.435     0.953
500.686     77.463     0.442
507.968     77.494    -0.153
515.357     77.515    -0.793
522.853     77.530    -1.368
530.458     77.555    -1.883
538.174     77.592    -2.383
546.002     77.647    -2.952
553.943     77.709    -3.655
562.001     77.775    -4.468
570.175     77.839    -5.448
578.469     77.874    -6.581
586.883     77.880    -7.668
595.419     77.877    -8.646
604.080     77.860    -9.620
612.866     77.831   -10.537
621.780     77.804   -11.273
630.824     77.789   -11.874
640.000     77.796   -12.408
649.309     77.830   -12.970
658.753     77.868   -13.740
668.335     77.884   -14.691
678.056     77.878   -15.673
687.919     77.852   -16.521
697.925     77.846   -17.131
708.077     77.901   -17.826
718.376     77.954   -19.049
728.825     77.910   -20.360
739.426     77.847   -21.129
750.181     77.847   -21.679
761.093     77.883   -22.446
772.163     77.919   -23.370
783.394     77.946   -24.411
794.789     77.936   -25.584
806.349     77.893   -26.659
818.078     77.838   -27.592
829.977     77.783   -28.395
842.050     77.758   -28.987
854.298     77.781   -29.545
866.724     77.833   -30.242
879.330     77.900   -31.120
892.120     77.972   -32.303
905.097     78.013   -33.764
918.262     77.998   -35.287
931.618     77.942   -36.705
945.169     77.878   -37.882
958.917     77.830   -38.774
972.864     77.815   -39.638
987.015     77.822   -40.709
1001.37     77.822   -41.908
1015.94     77.806   -43.230
1030.71     77.765   -44.668
1045.71     77.703   -45.964
1060.92     77.643   -47.103
1076.35     77.575   -48.248
1092.00     77.473   -49.288
1107.89     77.368   -50.001
1124.00     77.307   -50.507
1140.35     77.298   -51.021
1156.94     77.339   -51.552
1173.77     77.419   -52.413
1190.84     77.470   -53.790
1208.16     77.453   -55.227
1225.73     77.415   -56.504
1243.56     77.382   -57.668
1261.65     77.368   -58.714
1280.00     77.386   -59.844
1298.62     77.402   -61.095
1317.51     77.414   -62.404
1336.67     77.417   -63.829
1356.11     77.385   -65.179
1375.84     77.356   -66.353
1395.85     77.341   -67.513
1416.15     77.323   -68.649
1436.75     77.312   -69.748
1457.65     77.310   -70.803
1478.85     77.332   -71.789
1500.36     77.390   -72.853
1522.19     77.488   -74.100
1544.33     77.621   -75.713
1566.79     77.729   -77.853
1589.58     77.773   -80.165
1612.70     77.769   -82.221
1636.16     77.773   -84.041
1659.95     77.833   -85.944
1684.10     77.909   -88.205
1708.60     77.949   -90.825
1733.45     77.941   -93.530
1758.66     77.867   -96.099
1784.24     77.747   -98.424
1810.19     77.625  -100.357
1836.52     77.534  -101.903
1863.24     77.495  -103.254
1890.34     77.527  -104.669
1917.83     77.627  -106.391
1945.73     77.754  -108.545
1974.03     77.855  -111.246
2002.74     77.888  -114.430
2031.87     77.826  -117.777
2061.43     77.683  -121.034
2091.41     77.505  -124.065
2121.83     77.319  -126.728
2152.69     77.152  -128.859
2184.01     77.024  -130.491
2215.77     76.920  -131.881
2248.00     76.842  -133.267
2280.70     76.806  -134.802
2313.87     76.810  -136.576
2347.53     76.837  -138.611
2381.68     76.872  -140.717
2416.32     76.910  -142.745
2451.46     76.948  -144.784
2487.12     76.986  -146.800
2523.30     77.029  -148.799
2560.00     77.078  -150.969
2597.24     77.112  -153.318
2635.01     77.109  -155.787
2673.34     77.063  -158.388
2712.23     76.979  -160.955
2751.68     76.884  -163.297
2791.70     76.820  -165.464
2832.31     76.807  -167.480
2873.50     76.854  -169.395
2915.30     76.956  -171.404
2957.70     77.076  -173.556
3000.72     77.175  -175.916
3044.37     77.209  -178.529
3088.65     77.156   178.822
3133.58     77.058   176.534
3179.16     76.997   174.194
3225.40     76.877   171.970
3272.31     76.750   170.435
3319.91     76.668   169.523
3368.20     76.664   168.909
3417.19     76.745   168.135
3466.89     76.872   166.881
3517.32     76.992   165.084
3568.48     77.060   162.988
3620.39     77.058   160.974
3673.05     77.010   159.352
3726.47     76.969   158.219
3780.67     76.983   157.298
3835.67     77.061   156.205
3891.46     77.152   154.744
3948.06     77.207   152.954
4005.49     77.210   151.138
4063.75     77.175   149.590
4122.86     77.141   148.328
4182.82     77.135   147.216
4243.66     77.144   146.110
4305.39     77.155   144.948
4368.01     77.167   143.792
4431.55     77.180   142.689
4496.01     77.193   141.567
4561.40     77.201   140.330
4627.75     77.185   139.002
4695.06     77.132   137.772
4763.35     77.062   136.861
4832.64     77.020   136.289
4902.93     77.038   135.656
4974.24     77.019   134.505
5046.60     76.909   133.775
5120.00     76.828   133.444
5194.47     76.771   133.185
5270.03     76.728   132.996
5346.68     76.697   132.871
5424.45     76.667   132.788
5503.35     76.631   132.760
5583.40     76.588   132.827
5664.61     76.546   133.004
5747.01     76.516   133.284
5830.60     76.515   133.681
5915.41     76.561   134.135
6001.45     76.654   134.477
6088.74     76.765   134.587
6177.30     76.869   134.519
6267.15     76.953   134.406
6358.31     77.022   134.290
6450.80     77.084   134.104
6544.62     77.129   133.801
6639.82     77.149   133.414
6736.40     77.154   132.989
6834.38     77.138   132.568
6933.79     77.098   132.308
7034.64     77.050   132.287
7136.96     76.990   132.402
7240.77     76.910   132.730
7346.09     76.840   133.256
7452.94     76.776   133.700
7561.35     76.689   134.164
7671.33     76.611   134.826
7782.91     76.547   135.473
7896.12     76.456   136.179
8010.97     76.360   137.232
8127.49     76.300   138.456
8245.71     76.250   139.636
8365.65     76.192   140.900
8487.33     76.138   142.351
8610.78     76.097   144.044
8736.03     76.090   146.023
8863.09     76.141   148.150
8992.01     76.253   150.264
9122.80     76.434   152.229
9255.50     76.684   153.718
9390.12     76.944   154.611
9526.70     77.175   155.184
9665.27     77.381   155.468
9805.86     77.527   155.455
9948.49     77.593   155.468
10093.2     77.603   155.639
10240.0     77.570   156.041
10388.9     77.521   156.789
10540.1     77.484   157.802
10693.4     77.474   158.999
10848.9     77.502   160.172
11006.7     77.538   161.181
11166.8     77.571   162.127
11329.2     77.596   163.012
11494.0     77.597   163.912
11661.2     77.586   164.985
11830.8     77.580   166.189
12002.9     77.575   167.479
12177.5     77.578   168.889
12354.6     77.594   170.306
12534.3     77.612   171.671
12716.6     77.636   173.037
12901.6     77.672   174.297
13089.2     77.705   175.459
13279.6     77.746   176.558
13472.8     77.788   177.515
13668.8     77.818   178.405
13867.6     77.835   179.246
14069.3     77.827  -179.910
14273.9     77.796  -178.956
14481.5     77.748  -177.891
14692.2     77.688  -176.671
14905.9     77.634  -175.321
15122.7     77.584  -173.881
15342.7     77.541  -172.343
15565.8     77.513  -170.702
15792.2     77.503  -168.983
16021.9     77.512  -167.286
16255.0     77.529  -165.650
16491.4     77.544  -164.059
16731.3     77.549  -162.480
16974.7     77.536  -160.859
17221.6     77.501  -159.168
17472.1     77.437  -157.355
17726.2     77.339  -155.366
17984.0     77.209  -153.150
18245.6     77.059  -150.667
18511.0     76.909  -147.946
18780.2     76.785  -145.057
19053.4     76.709  -142.097
19330.5     76.689  -139.218
19611.7     76.725  -136.561
19897.0     76.795  -134.164
20186.4     76.863  -132.058
20480.0     76.909  -130.155
20777.9     76.912  -128.247
21080.1     76.870  -126.184
21386.7     76.798  -123.805
21697.8     76.715  -121.086
22013.4     76.645  -118.110
22333.6     76.593  -114.970
22658.4     76.551  -111.881
22988.0     76.511  -108.905
23322.4     76.441  -105.973
23661.6     76.330  -103.058
24005.8     76.199   -99.989
24355.0     76.058   -96.617
24709.2     75.925   -92.976
25068.6     75.821   -89.106
25433.2     75.738   -85.062
25803.2     75.651   -80.964
26178.5     75.549   -76.875
26559.3     75.431   -72.743
26945.6     75.306   -68.459
27337.5     75.187   -63.933
27735.2     75.091   -59.119
28138.6     75.031   -54.036
28547.9     75.004   -48.824
28963.1     74.999   -43.660
29384.4     75.003   -38.625
29811.8     75.004   -33.678
30245.4     74.996   -28.687
30685.3     74.991   -23.525
31131.7     75.006   -18.171
31584.5     75.057   -12.651
32043.9     75.154    -7.042
32510.0     75.293    -1.437
32982.8     75.465     4.145
33462.6     75.665     9.698
33949.3     75.889    15.193
34443.1     76.140    20.557
34944.1     76.408    25.684
35452.4     76.664    30.572
35968.0     76.898    35.324
36491.2     77.110    40.068
37022.0     77.315    44.910
37560.5     77.533    49.875
38106.8     77.749    54.997
38661.1     77.961    60.212
39223.4     78.129    65.651
39793.9     78.270    71.248
