Freq[Hz]     dBSPL  Phase[Deg]
5.00000    -11.458   -12.348
5.07273    -11.103   -12.437
5.14651    -10.717   -12.534
5.22137    -10.285   -12.640
5.29732     -9.834   -12.752
5.37437     -9.363   -12.869
5.45254     -8.893   -12.988
5.53185     -8.422   -13.109
5.61231     -7.951   -13.232
5.69394     -7.480   -13.356
5.77676     -7.009   -13.482
5.86079     -6.538   -13.610
5.94604     -6.067   -13.740
6.03252     -5.596   -13.872
6.12027     -5.125   -14.005
6.20929     -4.654   -14.141
6.29961     -4.182   -14.279
6.39124     -3.711   -14.418
6.48420     -3.240   -14.560
6.57851     -2.769   -14.704
6.67420     -2.298   -14.849
6.77128     -1.827   -14.997
6.86977     -1.356   -15.147
6.96969     -0.884   -15.300
7.07107     -0.413   -15.454
7.17392      0.058   -15.611
7.27827      0.529   -15.770
7.38413      1.001   -15.931
7.49154      1.472   -16.095
7.60050      1.943   -16.261
7.71105      2.415   -16.430
7.82321      2.886   -16.600
7.93701      3.358   -16.774
8.05245      3.829   -16.950
8.16958      4.300   -17.129
8.28841      4.772   -17.310
8.40896      5.244   -17.494
8.53128      5.715   -17.680
8.65537      6.187   -17.869
8.78126      6.658   -18.061
8.90899      7.130   -18.256
9.03857      7.602   -18.454
9.17004      8.074   -18.654
9.30342      8.545   -18.858
9.43874      9.017   -19.064
9.57603      9.489   -19.274
9.71532      9.961   -19.486
9.85663     10.433   -19.702
10.0000     10.905   -19.921
10.1455     11.377   -20.143
10.2930     11.849   -20.368
10.4427     12.321   -20.597
10.5946     12.793   -20.829
10.7487     13.266   -21.064
10.9051     13.738   -21.303
11.0637     14.210   -21.546
11.2246     14.683   -21.792
11.3879     15.155   -22.041
11.5535     15.628   -22.294
11.7216     16.101   -22.551
11.8921     16.573   -22.812
12.0650     17.046   -23.077
12.2405     17.519   -23.345
12.4186     17.992   -23.618
12.5992     18.465   -23.894
12.7825     18.938   -24.175
12.9684     19.411   -24.460
13.1570     19.884   -24.749
13.3484     20.358   -25.042
13.5426     20.831   -25.339
13.7395     21.305   -25.642
13.9394     21.778   -25.948
14.1421     22.252   -26.259
14.3478     22.726   -26.575
14.5565     23.200   -26.895
14.7683     23.674   -27.221
14.9831     24.148   -27.551
15.2010     24.622   -27.886
15.4221     25.097   -28.226
15.6464     25.571   -28.571
15.8740     26.046   -28.921
16.1049     26.521   -29.277
16.3392     26.996   -29.638
16.5768     27.471   -30.004
16.8179     27.946   -30.376
17.0626     28.422   -30.754
17.3107     28.897   -31.137
17.5625     29.373   -31.526
17.8180     29.849   -31.921
18.0771     30.325   -32.322
18.3401     30.801   -32.730
18.6068     31.278   -33.143
18.8775     31.755   -33.563
19.1521     32.232   -33.989
19.4306     32.709   -34.422
19.7133     33.184   -34.883
20.0000     33.654   -35.400
20.2909     34.113   -35.981
20.5860     34.554   -36.579
20.8855     34.981   -37.005
21.1893     35.397   -37.167
21.4975     35.813   -37.177
21.8102     36.245   -37.156
22.1274     36.699   -37.219
22.4492     37.179   -37.441
22.7758     37.682   -37.797
23.1071     38.197   -38.291
23.4432     38.716   -38.882
23.7841     39.229   -39.613
24.1301     39.730   -40.596
24.4811     40.219   -41.704
24.8372     40.697   -42.737
25.1984     41.169   -43.623
25.5649     41.640   -44.326
25.9368     42.112   -44.953
26.3141     42.587   -45.635
26.6968     43.062   -46.429
27.0851     43.537   -47.363
27.4791     44.012   -48.386
27.8788     44.486   -49.408
28.2843     44.960   -50.349
28.6957     45.435   -51.221
29.1131     45.913   -52.095
29.5365     46.393   -53.021
29.9661     46.875   -54.054
30.4020     47.355   -55.135
30.8442     47.830   -56.225
31.2929     48.298   -57.342
31.7480     48.757   -58.473
32.2098     49.212   -59.653
32.6783     49.670   -60.872
33.1536     50.137   -61.919
33.6359     50.619   -62.701
34.1251     51.115   -63.227
34.6215     51.622   -63.823
35.1250     52.136   -64.698
35.6359     52.654   -65.886
36.1543     53.181   -67.193
36.6802     53.712   -68.531
37.2137     54.243   -69.853
37.7550     54.770   -71.186
38.3041     55.288   -72.644
38.8613     55.798   -74.346
39.4265     56.306   -76.067
40.0000     56.816   -77.646
40.5818     57.333   -79.029
41.1721     57.854   -80.403
41.7710     58.373   -81.931
42.3785     58.889   -83.720
42.9949     59.398   -85.736
43.6203     59.900   -87.873
44.2548     60.395   -90.006
44.8985     60.885   -92.020
45.5515     61.370   -93.866
46.2141     61.854   -95.603
46.8863     62.340   -97.332
47.5683     62.831   -99.126
48.2602     63.325  -101.038
48.9621     63.824  -103.067
49.6743     64.326  -105.188
50.3968     64.830  -107.382
51.1299     65.333  -109.633
51.8736     65.834  -111.927
52.6281     66.330  -114.272
53.3936     66.822  -116.680
54.1702     67.309  -119.164
54.9581     67.791  -121.720
55.7575     68.268  -124.351
56.5685     68.740  -127.068
57.3914     69.206  -129.849
58.2261     69.666  -132.680
59.0730     70.116  -135.577
59.9323     70.556  -138.562
60.8040     70.984  -141.631
61.6884     71.400  -144.768
62.5857     71.805  -147.966
63.4960     72.198  -151.227
64.4196     72.574  -154.539
65.3566     72.932  -157.893
66.3073     73.273  -161.293
67.2717     73.600  -164.725
68.2502     73.914  -168.171
69.2429     74.219  -171.644
70.2501     74.512  -175.160
71.2719     74.785  -178.724
72.3086     75.033   177.695
73.3603     75.258   174.151
74.4274     75.461   170.664
75.5099     75.648   167.241
76.6083     75.821   163.866
77.7226     75.982   160.519
78.8531     76.128   157.204
80.0000     76.260   153.928
81.1636     76.379   150.717
82.3442     76.489   147.589
83.5419     76.590   144.517
84.7570     76.680   141.485
85.9899     76.759   138.501
87.2406     76.827   135.575
88.5096     76.883   132.720
89.7970     76.931   129.950
91.1031     76.974   127.256
92.4282     77.016   124.623
93.7726     77.054   122.046
95.1366     77.087   119.525
96.5204     77.115   117.053
97.9243     77.138   114.631
99.3486     77.156   112.269
100.794     77.171   109.961
102.260     77.184   107.706
103.747     77.194   105.506
105.256     77.203   103.360
106.787     77.211   101.243
108.340     77.218    99.142
109.916     77.221    97.070
111.515     77.217    95.040
113.137     77.207    93.069
114.783     77.195    91.179
116.452     77.186    89.347
118.146     77.182    87.533
119.865     77.177    85.725
121.608     77.169    83.925
123.377     77.153    82.154
125.171     77.132    80.450
126.992     77.110    78.821
128.839     77.090    77.248
130.713     77.075    75.716
132.615     77.063    74.197
134.543     77.053    72.681
136.500     77.042    71.181
138.486     77.032    69.696
140.500     77.021    68.225
142.544     77.009    66.780
144.617     76.997    65.367
146.721     76.987    63.974
148.855     76.980    62.588
151.020     76.973    61.196
153.217     76.964    59.791
155.445     76.950    58.381
157.706     76.928    56.985
160.000     76.897    55.635
162.327     76.862    54.363
164.688     76.831    53.164
167.084     76.805    52.008
169.514     76.787    50.870
171.980     76.773    49.728
174.481     76.760    48.570
177.019     76.744    47.415
179.594     76.726    46.286
182.206     76.707    45.192
184.856     76.692    44.125
187.545     76.681    43.058
190.273     76.671    41.975
193.041     76.659    40.883
195.849     76.643    39.797
198.697     76.624    38.728
201.587     76.602    37.678
204.520     76.577    36.648
207.494     76.548    35.657
210.512     76.518    34.729
213.574     76.490    33.880
216.681     76.470    33.105
219.833     76.465    32.372
223.030     76.476    31.608
226.274     76.496    30.719
229.565     76.512    29.715
232.905     76.519    28.662
236.292     76.520    27.584
239.729     76.512    26.506
243.216     76.495    25.453
246.754     76.471    24.433
250.343     76.440    23.445
253.984     76.400    22.538
257.678     76.363    21.785
261.426     76.346    21.110
265.229     76.349    20.374
269.087     76.361    19.504
273.001     76.365    18.468
276.972     76.344    17.372
281.000     76.304    16.378
285.088     76.266    15.530
289.234     76.242    14.753
293.441     76.235    13.911
297.709     76.229    12.920
302.040     76.201    11.841
306.433     76.147    10.828
310.890     76.081    10.008
315.412     76.026     9.386
320.000     76.001     8.836
324.655     76.003     8.184
329.377     76.015     7.326
334.168     76.017     6.260
339.028     75.986     5.076
343.959     75.915     3.961
348.962     75.825     3.081
354.038     75.741     2.403
359.188     75.669     1.837
364.412     75.618     1.347
369.713     75.595     0.782
375.090     75.574     0.039
380.546     75.536    -0.770
386.081     75.489    -1.563
391.697     75.434    -2.352
397.394     75.361    -3.165
403.175     75.264    -3.923
409.039     75.146    -4.482
414.989     75.027    -4.777
421.025     74.931    -4.781
427.149     74.886    -4.599
433.362     74.900    -4.495
439.665     74.948    -4.703
446.060     74.996    -5.312
452.548     75.005    -6.204
459.131     74.963    -7.119
465.809     74.881    -7.818
472.584     74.791    -8.137
479.458     74.743    -8.128
486.432     74.756    -8.080
493.507     74.810    -8.240
500.686     74.879    -8.684
507.968     74.936    -9.451
515.357     74.944   -10.417
522.853     74.902   -11.282
530.458     74.844   -11.913
538.174     74.791   -12.314
546.002     74.767   -12.564
553.943     74.773   -12.891
562.001     74.775   -13.285
570.175     74.783   -13.642
578.469     74.794   -14.065
586.883     74.799   -14.443
595.419     74.825   -14.725
604.080     74.883   -15.151
612.866     74.955   -15.808
621.780     75.014   -16.721
630.824     75.038   -17.833
640.000     75.026   -18.905
649.309     74.995   -19.865
658.753     74.950   -20.831
668.335     74.883   -21.682
678.056     74.817   -22.251
687.919     74.769   -22.604
697.925     74.760   -22.737
708.077     74.834   -22.913
718.376     74.930   -23.749
728.825     74.938   -24.966
739.426     74.899   -25.898
750.181     74.867   -26.638
761.093     74.843   -27.376
772.163     74.813   -27.981
783.394     74.789   -28.348
794.789     74.798   -28.643
806.349     74.843   -28.994
818.078     74.921   -29.543
829.977     75.007   -30.442
842.050     75.072   -31.508
854.298     75.123   -32.576
866.724     75.161   -33.755
879.330     75.174   -34.984
892.120     75.181   -36.076
905.097     75.201   -37.147
918.262     75.227   -38.315
931.618     75.251   -39.514
945.169     75.278   -40.744
958.917     75.307   -42.036
972.864     75.352   -43.508
987.015     75.408   -45.297
1001.37     75.447   -47.390
1015.94     75.451   -49.791
1030.71     75.377   -52.345
1045.71     75.197   -54.643
1060.92     74.955   -56.546
1076.35     74.676   -58.078
1092.00     74.373   -59.140
1107.89     74.084   -59.795
1124.00     73.821   -60.051
1140.35     73.591   -59.805
1156.94     73.423   -59.148
1173.77     73.377   -58.276
1190.84     73.465   -57.600
1208.16     73.635   -57.451
1225.73     73.852   -57.916
1243.56     74.066   -59.127
1261.65     74.211   -60.826
1280.00     74.294   -62.638
1298.62     74.329   -64.446
1317.51     74.355   -66.049
1336.67     74.421   -67.701
1356.11     74.482   -69.781
1375.84     74.494   -72.095
1395.85     74.446   -74.424
1416.15     74.329   -76.600
1436.75     74.188   -78.442
1457.65     74.063   -80.002
1478.85     73.962   -81.529
1500.36     73.869   -83.144
1522.19     73.741   -84.621
1544.33     73.606   -85.813
1566.79     73.522   -86.782
1589.58     73.483   -87.594
1612.70     73.500   -88.385
1636.16     73.600   -89.359
1659.95     73.745   -90.740
1684.10     73.882   -92.650
1708.60     74.005   -95.032
1733.45     74.103   -97.724
1758.66     74.157  -100.652
1784.24     74.149  -103.781
1810.19     74.059  -106.830
1836.52     73.899  -109.553
1863.24     73.696  -111.928
1890.34     73.495  -113.841
1917.83     73.367  -115.279
1945.73     73.326  -116.553
1974.03     73.371  -117.924
2002.74     73.492  -119.625
2031.87     73.621  -122.017
2061.43     73.713  -125.253
2091.41     73.722  -129.155
2121.83     73.601  -133.284
2152.69     73.376  -137.143
2184.01     73.089  -140.493
2215.77     72.752  -143.283
2248.00     72.390  -145.406
2280.70     72.055  -146.779
2313.87     71.814  -147.639
2347.53     71.699  -148.402
2381.68     71.682  -149.251
2416.32     71.751  -150.325
2451.46     71.863  -151.919
2487.12     71.923  -154.004
2523.30     71.923  -156.169
2560.00     71.917  -158.204
2597.24     71.923  -160.213
2635.01     71.946  -162.240
2673.34     71.995  -164.229
2712.23     72.067  -166.343
2751.68     72.127  -168.729
2791.70     72.151  -171.217
2832.31     72.130  -173.658
2873.50     72.062  -175.949
2915.30     71.964  -177.986
2957.70     71.849  -179.727
3000.72     71.751   178.871
3044.37     71.697   177.550
3088.65     71.648   176.195
3133.58     71.625   175.207
3179.16     71.715   173.839
3225.40     71.753   171.814
3272.31     71.751   169.999
3319.91     71.756   168.471
3368.20     71.767   167.301
3417.19     71.830   166.420
3466.89     71.958   165.475
3517.32     72.132   164.287
3568.48     72.335   162.575
3620.39     72.507   160.235
3673.05     72.603   157.528
3726.47     72.601   154.712
3780.67     72.506   152.208
3835.67     72.373   150.363
3891.46     72.267   149.118
3948.06     72.231   148.114
4005.49     72.264   146.887
4063.75     72.300   145.185
4122.86     72.270   143.141
4182.82     72.146   141.208
4243.66     71.954   139.822
4305.39     71.746   139.143
4368.01     71.588   139.074
4431.55     71.520   139.272
4496.01     71.535   139.402
4561.40     71.609   139.336
4627.75     71.713   139.001
4695.06     71.826   138.357
4763.35     71.932   137.445
4832.64     72.030   136.305
4902.93     72.139   134.718
4974.24     72.143   132.449
5046.60     72.001   130.799
5120.00     71.873   129.786
5194.47     71.764   128.877
5270.03     71.636   127.949
5346.68     71.464   127.079
5424.45     71.255   126.542
5503.35     71.049   126.509
5583.40     70.889   126.790
5664.61     70.779   127.114
5747.01     70.683   127.331
5830.60     70.581   127.542
5915.41     70.481   127.913
6001.45     70.398   128.309
6088.74     70.329   128.545
6177.30     70.242   128.591
6267.15     70.111   128.542
6358.31     69.932   128.748
6450.80     69.720   129.532
6544.62     69.516   130.913
6639.82     69.361   132.704
6736.40     69.249   134.688
6834.38     69.170   136.859
6933.79     69.147   139.097
7034.64     69.171   141.196
7136.96     69.241   143.263
7240.77     69.390   145.095
7346.09     69.572   146.346
7452.94     69.734   147.292
7561.35     69.911   148.027
7671.33     70.073   148.150
7782.91     70.146   147.858
7896.12     70.145   147.739
8010.97     70.117   147.717
8127.49     70.030   147.807
8245.71     69.899   148.601
8365.65     69.828   149.949
8487.33     69.823   151.139
8610.78     69.815   152.266
8736.03     69.833   153.473
8863.09     69.883   154.255
8992.01     69.896   154.592
9122.80     69.863   154.919
9255.50     69.813   155.179
9390.12     69.727   155.290
9526.70     69.582   155.559
9665.27     69.393   156.151
9805.86     69.172   157.136
9948.49     68.959   158.662
10093.2     68.807   160.476
10240.0     68.708   162.261
10388.9     68.651   163.946
10540.1     68.615   165.238
10693.4     68.532   166.160
10848.9     68.380   167.077
11006.7     68.165   168.113
11166.8     67.888   169.485
11329.2     67.588   171.353
11494.0     67.300   173.738
11661.2     67.050   176.570
11830.8     66.846   179.627
12002.9     66.687  -177.171
12177.5     66.573  -174.061
12354.6     66.456  -171.161
12534.3     66.330  -168.356
12716.6     66.199  -165.710
12901.6     66.050  -163.013
13089.2     65.923  -160.204
13279.6     65.831  -157.542
13472.8     65.747  -155.076
13668.8     65.647  -152.964
13867.6     65.482  -151.193
14069.3     65.243  -149.541
14273.9     64.925  -147.885
14481.5     64.517  -145.925
14692.2     64.037  -143.427
14905.9     63.493  -140.232
15122.7     62.924  -136.123
15342.7     62.387  -131.115
15565.8     61.936  -125.421
15792.2     61.614  -119.507
16021.9     61.409  -113.846
16255.0     61.282  -108.545
16491.4     61.182  -103.585
16731.3     61.094   -98.780
16974.7     61.011   -93.830
17221.6     60.914   -88.747
17472.1     60.809   -83.639
17726.2     60.705   -78.496
17984.0     60.597   -73.368
18245.6     60.486   -68.268
18511.0     60.382   -63.078
18780.2     60.286   -57.727
19053.4     60.206   -52.410
19330.5     60.159   -47.307
19611.7     60.129   -42.460
19897.0     60.085   -38.019
20186.4     60.014   -33.865
20480.0     59.902   -29.597
20777.9     59.749   -25.025
21080.1     59.603   -19.977
21386.7     59.497   -14.330
21697.8     59.417    -8.358
22013.4     59.360    -2.405
22333.6     59.321     3.238
22658.4     59.271     8.307
22988.0     59.194    12.962
23322.4     59.066    17.574
23661.6     58.867    22.360
24005.8     58.601    27.570
24355.0     58.263    33.426
24709.2     57.876    39.943
25068.6     57.496    47.126
25433.2     57.161    54.950
25803.2     56.881    63.127
26178.5     56.660    71.306
26559.3     56.477    79.290
26945.6     56.272    87.168
27337.5     56.011    95.437
27735.2     55.741   104.583
28138.6     55.541   114.656
28547.9     55.501   125.335
28963.1     55.688   135.985
29384.4     56.074   145.817
29811.8     56.555   154.335
30245.4     57.019   161.502
30685.3     57.395   167.623
31131.7     57.671   173.220
31584.5     57.869   178.715
32043.9     58.022  -175.684
32510.0     58.139  -169.893
32982.8     58.214  -164.009
33462.6     58.237  -158.086
33949.3     58.186  -151.863
34443.1     58.089  -145.060
34944.1     58.017  -137.653
35452.4     58.042  -129.887
35968.0     58.227  -122.381
36491.2     58.532  -115.920
37022.0     58.825  -110.912
37560.5     59.005  -107.264
38106.8     59.033  -104.159
38661.1     58.918  -101.083
39223.4     58.744   -97.303
39793.9     58.551   -92.783
