Freq[Hz]     dBSPL  Phase[Deg]
5.00000    -12.087   -14.638
5.07273    -11.731   -14.726
5.14651    -11.343   -14.820
5.22137    -10.908   -14.924
5.29732    -10.455   -15.034
5.37437     -9.981   -15.148
5.45254     -9.507   -15.264
5.53185     -9.033   -15.382
5.61231     -8.558   -15.502
5.69394     -8.084   -15.623
5.77676     -7.610   -15.747
5.86079     -7.136   -15.872
5.94604     -6.662   -15.998
6.03252     -6.188   -16.127
6.12027     -5.713   -16.258
6.20929     -5.239   -16.390
6.29961     -4.765   -16.525
6.39124     -4.291   -16.661
6.48420     -3.816   -16.799
6.57851     -3.342   -16.940
6.67420     -2.868   -17.082
6.77128     -2.393   -17.227
6.86977     -1.919   -17.373
6.96969     -1.445   -17.522
7.07107     -0.970   -17.673
7.17392     -0.496   -17.826
7.27827     -0.021   -17.982
7.38413      0.453   -18.140
7.49154      0.928   -18.300
7.60050      1.402   -18.462
7.71105      1.877   -18.627
7.82321      2.351   -18.794
7.93701      2.826   -18.963
8.05245      3.300   -19.136
8.16958      3.775   -19.310
8.28841      4.250   -19.487
8.40896      4.724   -19.667
8.53128      5.199   -19.850
8.65537      5.674   -20.035
8.78126      6.149   -20.222
8.90899      6.624   -20.413
9.03857      7.099   -20.606
9.17004      7.574   -20.803
9.30342      8.049   -21.002
9.43874      8.524   -21.204
9.57603      8.999   -21.409
9.71532      9.474   -21.617
9.85663      9.949   -21.828
10.0000     10.424   -22.042
10.1455     10.899   -22.259
10.2930     11.375   -22.480
10.4427     11.850   -22.703
10.5946     12.325   -22.930
10.7487     12.801   -23.161
10.9051     13.276   -23.394
11.0637     13.752   -23.631
11.2246     14.227   -23.872
11.3879     14.703   -24.116
11.5535     15.179   -24.364
11.7216     15.655   -24.616
11.8921     16.130   -24.871
12.0650     16.606   -25.130
12.2405     17.082   -25.393
12.4186     17.558   -25.659
12.5992     18.035   -25.930
12.7825     18.511   -26.204
12.9684     18.987   -26.483
13.1570     19.464   -26.766
13.3484     19.940   -27.053
13.5426     20.417   -27.344
13.7395     20.893   -27.640
13.9394     21.370   -27.940
14.1421     21.847   -28.244
14.3478     22.324   -28.553
14.5565     22.801   -28.867
14.7683     23.278   -29.185
14.9831     23.756   -29.508
15.2010     24.233   -29.836
15.4221     24.711   -30.168
15.6464     25.188   -30.506
15.8740     25.666   -30.849
16.1049     26.144   -31.197
16.3392     26.622   -31.550
16.5768     27.101   -31.909
16.8179     27.579   -32.273
17.0626     28.058   -32.642
17.3107     28.537   -33.017
17.5625     29.016   -33.398
17.8180     29.495   -33.785
18.0771     29.974   -34.177
18.3401     30.454   -34.576
18.6068     30.933   -34.981
18.8775     31.413   -35.392
19.1521     31.893   -35.809
19.4306     32.374   -36.233
19.7133     32.853   -36.682
20.0000     33.331   -37.182
20.2909     33.802   -37.743
20.5860     34.261   -38.325
20.8855     34.702   -38.765
21.1893     35.124   -38.987
21.4975     35.536   -39.091
21.8102     35.951   -39.166
22.1274     36.383   -39.281
22.4492     36.847   -39.463
22.7758     37.345   -39.680
23.1071     37.868   -40.006
23.4432     38.406   -40.458
23.7841     38.942   -41.121
24.1301     39.465   -42.136
24.4811     39.969   -43.341
24.8372     40.454   -44.478
25.1984     40.927   -45.448
25.5649     41.394   -46.194
25.9368     41.863   -46.836
26.3141     42.339   -47.525
26.6968     42.819   -48.335
27.0851     43.302   -49.308
27.4791     43.784   -50.393
27.8788     44.262   -51.487
28.2843     44.736   -52.489
28.6957     45.209   -53.401
29.1131     45.684   -54.298
29.5365     46.164   -55.242
29.9661     46.648   -56.305
30.4020     47.131   -57.430
30.8442     47.608   -58.571
31.2929     48.077   -59.735
31.7480     48.537   -60.909
32.2098     48.993   -62.147
32.6783     49.451   -63.454
33.1536     49.912   -64.601
33.6359     50.379   -65.453
34.1251     50.855   -65.986
34.6215     51.350   -66.521
35.1250     51.864   -67.314
35.6359     52.390   -68.461
36.1543     52.924   -69.777
36.6802     53.461   -71.154
37.2137     53.993   -72.519
37.7550     54.521   -73.889
38.3041     55.042   -75.369
38.8613     55.561   -77.104
39.4265     56.075   -78.884
40.0000     56.585   -80.517
40.5818     57.095   -81.913
41.1721     57.611   -83.258
41.7710     58.134   -84.733
42.3785     58.662   -86.485
42.9949     59.192   -88.520
43.6203     59.716   -90.743
44.2548     60.228   -93.025
44.8985     60.724   -95.230
45.5515     61.204   -97.261
46.2141     61.675   -99.142
46.8863     62.146  -100.963
47.5683     62.623  -102.801
48.2602     63.108  -104.729
48.9621     63.601  -106.769
49.6743     64.101  -108.900
50.3968     64.606  -111.114
51.1299     65.111  -113.396
51.8736     65.614  -115.726
52.6281     66.113  -118.118
53.3936     66.606  -120.587
54.1702     67.094  -123.139
54.9581     67.577  -125.766
55.7575     68.054  -128.471
56.5685     68.525  -131.264
57.3914     68.989  -134.123
58.2261     69.444  -137.025
59.0730     69.890  -139.981
59.9323     70.326  -143.016
60.8040     70.752  -146.130
61.6884     71.166  -149.310
62.5857     71.570  -152.552
63.4960     71.963  -155.862
64.4196     72.340  -159.234
65.3566     72.698  -162.665
66.3073     73.038  -166.151
67.2717     73.360  -169.675
68.2502     73.669  -173.204
69.2429     73.968  -176.730
70.2501     74.259   179.736
71.2719     74.535   176.166
72.3086     74.790   172.567
73.3603     75.022   168.976
74.4274     75.232   165.408
75.5099     75.422   161.875
76.6083     75.596   158.378
77.7226     75.756   154.906
78.8531     75.902   151.470
80.0000     76.031   148.075
81.1636     76.145   144.752
82.3442     76.247   141.532
83.5419     76.340   138.391
84.7570     76.425   135.306
85.9899     76.503   132.273
87.2406     76.572   129.289
88.5096     76.630   126.357
89.7970     76.680   123.495
91.1031     76.723   120.706
92.4282     76.764   117.981
93.7726     76.802   115.313
95.1366     76.834   112.699
96.5204     76.861   110.134
97.9243     76.884   107.620
99.3486     76.902   105.165
100.794     76.918   102.765
102.260     76.931   100.412
103.747     76.941    98.107
105.256     76.949    95.856
106.787     76.956    93.647
108.340     76.962    91.469
109.916     76.966    89.329
111.515     76.967    87.231
113.137     76.964    85.180
114.783     76.963    83.190
116.452     76.965    81.238
118.146     76.973    79.278
119.865     76.980    77.296
121.608     76.980    75.296
123.377     76.968    73.308
125.171     76.945    71.393
126.992     76.918    69.572
128.839     76.895    67.827
130.713     76.878    66.123
132.615     76.866    64.413
134.543     76.853    62.682
136.500     76.834    60.954
138.486     76.808    59.263
140.500     76.779    57.639
142.544     76.748    56.097
144.617     76.722    54.634
146.721     76.707    53.218
148.855     76.701    51.807
151.020     76.703    50.363
153.217     76.705    48.875
155.445     76.704    47.354
157.706     76.696    45.825
160.000     76.680    44.319
162.327     76.661    42.869
164.688     76.646    41.472
167.084     76.637    40.091
169.514     76.634    38.701
171.980     76.632    37.276
174.481     76.625    35.814
177.019     76.609    34.355
179.594     76.587    32.938
182.206     76.562    31.578
184.856     76.541    30.271
187.545     76.527    28.981
190.273     76.517    27.675
193.041     76.507    26.354
195.849     76.498    25.032
198.697     76.489    23.705
201.587     76.481    22.346
204.520     76.469    20.939
207.494     76.446    19.508
210.512     76.410    18.100
213.574     76.363    16.771
216.681     76.311    15.546
219.833     76.260    14.410
223.030     76.219    13.348
226.274     76.194    12.304
229.565     76.179    11.233
232.905     76.173    10.149
236.292     76.179     9.039
239.729     76.193     7.844
243.216     76.205     6.533
246.754     76.204     5.124
250.343     76.185     3.662
253.984     76.144     2.216
257.678     76.084     0.880
261.426     76.019    -0.283
265.229     75.970    -1.307
269.087     75.947    -2.325
273.001     75.941    -3.444
276.972     75.935    -4.693
281.000     75.918    -6.016
285.088     75.889    -7.326
289.234     75.852    -8.590
293.441     75.821    -9.799
297.709     75.799   -11.027
302.040     75.774   -12.332
306.433     75.740   -13.640
310.890     75.700   -14.916
315.412     75.656   -16.161
320.000     75.619   -17.364
324.655     75.591   -18.619
329.377     75.565   -19.964
334.168     75.535   -21.372
339.028     75.500   -22.853
343.959     75.453   -24.405
348.962     75.386   -25.983
354.038     75.299   -27.538
359.188     75.192   -29.008
364.412     75.074   -30.344
369.713     74.966   -31.558
375.090     74.870   -32.752
380.546     74.773   -33.974
386.081     74.674   -35.163
391.697     74.569   -36.333
397.394     74.459   -37.509
403.175     74.345   -38.655
409.039     74.221   -39.791
414.989     74.080   -40.861
421.025     73.930   -41.697
427.149     73.797   -42.260
433.362     73.712   -42.682
439.665     73.682   -43.202
446.060     73.686   -44.051
452.548     73.679   -45.254
459.131     73.634   -46.608
465.809     73.559   -47.998
472.584     73.446   -49.331
479.458     73.301   -50.383
486.432     73.162   -51.109
493.507     73.043   -51.628
500.686     72.957   -51.931
507.968     72.943   -52.167
515.357     72.984   -52.718
522.853     73.041   -53.652
530.458     73.101   -54.852
538.174     73.152   -56.315
546.002     73.199   -57.835
553.943     73.285   -59.436
562.001     73.391   -61.573
570.175     73.443   -64.341
578.469     73.380   -67.488
586.883     73.169   -70.546
595.419     72.857   -72.946
604.080     72.512   -74.425
612.866     72.220   -75.048
621.780     72.080   -75.356
630.824     72.055   -75.989
640.000     72.048   -77.066
649.309     72.028   -78.420
658.753     71.972   -79.773
668.335     71.886   -80.960
678.056     71.817   -82.077
687.919     71.782   -83.292
697.925     71.775   -84.861
708.077     71.771   -87.077
718.376     71.681   -89.815
728.825     71.472   -92.185
739.426     71.281   -93.776
750.181     71.165   -95.216
761.093     71.075   -96.944
772.163     70.946   -99.018
783.394     70.704  -101.157
794.789     70.351  -102.632
806.349     70.008  -103.001
818.078     69.766  -102.726
829.977     69.640  -102.330
842.050     69.645  -102.186
854.298     69.734  -102.592
866.724     69.871  -103.494
879.330     70.059  -105.064
892.120     70.208  -107.532
905.097     70.246  -110.748
918.262     70.112  -114.279
931.618     69.793  -117.312
945.169     69.382  -119.416
958.917     68.955  -120.353
972.864     68.661  -120.175
987.015     68.563  -120.106
1001.37     68.527  -120.681
1015.94     68.508  -121.712
1030.71     68.426  -123.433
1045.71     68.188  -125.241
1060.92     67.843  -126.286
1076.35     67.465  -126.279
1092.00     67.190  -125.396
1107.89     67.146  -124.519
1124.00     67.292  -124.761
1140.35     67.502  -126.959
1156.94     67.597  -130.803
1173.77     67.439  -134.900
1190.84     67.049  -137.855
1208.16     66.579  -139.091
1225.73     66.186  -139.228
1243.56     65.976  -139.230
1261.65     65.956  -140.129
1280.00     66.010  -142.804
1298.62     65.929  -146.882
1317.51     65.604  -151.012
1336.67     65.116  -154.122
1356.11     64.514  -155.745
1375.84     63.858  -155.543
1395.85     63.373  -153.769
1416.15     63.215  -151.642
1436.75     63.364  -150.530
1457.65     63.627  -151.179
1478.85     63.793  -153.390
1500.36     63.778  -156.664
1522.19     63.502  -160.324
1544.33     62.961  -162.784
1566.79     62.337  -163.172
1589.58     61.820  -161.852
1612.70     61.522  -159.399
1636.16     61.533  -157.111
1659.95     61.788  -156.564
1684.10     61.981  -158.317
1708.60     61.878  -161.324
1733.45     61.499  -164.014
1758.66     60.941  -165.392
1784.24     60.376  -164.934
1810.19     59.998  -164.056
1836.52     59.797  -164.460
1863.24     59.609  -165.655
1890.34     59.365  -166.777
1917.83     59.112  -167.157
1945.73     58.900  -166.934
1974.03     58.809  -166.740
2002.74     58.899  -167.240
2031.87     59.083  -169.892
2061.43     59.210  -174.742
2091.41     59.172   179.528
2121.83     58.909   172.962
2152.69     58.505   165.177
2184.01     58.079   156.047
2215.77     57.644   145.478
2248.00     57.201   134.043
2280.70     56.661   122.070
2313.87     56.052   108.664
2347.53     55.403    94.959
2381.68     54.685    82.237
2416.32     54.041    70.530
2451.46     53.482    59.668
2487.12     52.920    49.000
2523.30     52.410    39.975
2560.00     52.296    34.884
2597.24     52.854    33.555
2635.01     53.849    33.296
2673.34     55.157    32.525
2712.23     56.505    29.898
2751.68     57.468    25.715
2791.70     58.012    21.402
2832.31     58.311    17.210
2873.50     58.483    12.754
2915.30     58.585     7.509
2957.70     58.616     2.082
3000.72     58.639    -2.257
3044.37     58.710    -6.015
3088.65     58.815    -9.242
3133.58     59.072   -11.292
3179.16     59.582   -13.710
3225.40     60.032   -16.675
3272.31     60.330   -18.837
3319.91     60.428   -19.748
3368.20     60.331   -19.106
3417.19     60.189   -17.185
3466.89     60.122   -14.834
3517.32     60.110   -12.964
3568.48     60.083   -11.890
3620.39     59.998   -11.235
3673.05     59.811   -10.515
3726.47     59.491    -9.019
3780.67     59.082    -6.335
3835.67     58.660    -2.471
3891.46     58.341     2.414
3948.06     58.199     7.415
4005.49     58.216    11.935
4063.75     58.381    16.100
4122.86     58.590    19.866
4182.82     58.725    23.566
4243.66     58.789    27.409
4305.39     58.830    31.426
4368.01     58.928    35.873
4431.55     59.141    40.253
4496.01     59.480    43.975
4561.40     59.887    46.716
4627.75     60.243    48.461
4695.06     60.464    49.487
4763.35     60.482    50.180
4832.64     60.296    51.335
4902.93     59.992    53.490
4974.24     59.529    56.478
5046.60     58.967    61.175
5120.00     58.586    66.672
5194.47     58.344    71.385
5270.03     58.083    74.931
5346.68     57.704    77.731
5424.45     57.149    80.340
5503.35     56.457    82.947
5583.40     55.753    84.816
5664.61     55.056    85.615
5747.01     54.279    86.251
5830.60     53.460    88.486
5915.41     52.769    94.043
6001.45     52.333   101.885
6088.74     52.176   109.454
6177.30     52.152   114.731
6267.15     52.025   116.021
6358.31     51.658   113.921
6450.80     50.988   109.487
6544.62     50.085   102.477
6639.82     49.085    94.490
6736.40     47.889    88.583
6834.38     46.341    89.262
6933.79     44.383   100.666
7034.64     42.290   122.536
7136.96     40.786   154.207
7240.77     40.716  -168.649
7346.09     41.869  -138.547
7452.94     42.870  -119.957
7561.35     43.323  -106.970
7671.33     43.965   -94.089
7782.91     45.042   -82.493
7896.12     46.402   -73.709
8010.97     47.888   -65.912
8127.49     49.125   -60.698
8245.71     49.796   -59.268
8365.65     49.875   -57.742
8487.33     49.643   -53.179
8610.78     49.485   -45.402
8736.03     49.686   -35.134
8863.09     50.383   -23.785
8992.01     51.340   -13.899
9122.80     52.044    -6.756
9255.50     52.288    -1.568
9390.12     52.033     1.254
9526.70     51.236     8.356
9665.27     50.025    17.672
9805.86     48.476    40.700
9948.49     46.637    66.274
10093.2     44.598    81.096
10240.0     42.503    93.906
10388.9     40.716    95.053
10540.1     39.465    80.627
10693.4     38.938    68.114
10848.9     39.100    54.248
11006.7     39.491    41.770
11166.8     39.926    28.353
11329.2     40.536    15.409
11494.0     41.367     4.748
11661.2     42.310    -3.651
11830.8     43.009   -10.118
12002.9     43.454   -13.875
12177.5     43.883   -15.101
12354.6     44.323   -15.034
12534.3     44.751   -13.493
12716.6     45.332   -10.408
12901.6     45.872    -7.001
13089.2     46.096    -2.571
13279.6     46.143     4.306
13472.8     46.044    12.196
13668.8     45.701    20.346
13867.6     45.318    29.457
14069.3     44.777    38.826
14273.9     44.024    49.876
14481.5     43.380    63.519
14692.2     42.856    75.897
14905.9     42.481    82.194
15122.7     42.247    75.128
15342.7     41.830    49.293
15565.8     41.148     9.960
15792.2     40.220   -32.807
16021.9     39.133   -68.839
16255.0     38.394   -88.393
16491.4     38.501   -88.949
16731.3     39.518   -77.349
16974.7     40.954   -61.864
17221.6     42.260   -45.987
17472.1     43.107   -30.009
17726.2     43.312   -12.980
17984.0     42.952     6.397
18245.6     42.269    29.179
18511.0     41.482    52.651
18780.2     40.799    70.403
19053.4     40.228    81.045
19330.5     39.584    86.817
19611.7     38.863    90.028
19897.0     38.041    95.078
20186.4     37.129   104.523
20480.0     36.510   118.905
20777.9     36.347   135.860
21080.1     36.510   147.492
21386.7     36.774   149.235
21697.8     36.809   145.974
22013.4     36.659   149.329
22333.6     36.438   164.863
22658.4     36.101  -164.573
22988.0     35.800  -138.253
23322.4     35.485  -124.284
23661.6     34.901  -132.886
24005.8     33.947  -178.790
24355.0     32.822   116.683
24709.2     32.287    53.483
25068.6     32.960    -4.693
25433.2     34.455   -44.502
25803.2     36.038   -67.612
26178.5     37.021   -73.778
26559.3     37.285   -67.146
26945.6     37.101   -52.177
27337.5     36.728   -30.567
27735.2     36.494    -4.997
28138.6     36.713    22.565
28547.9     37.255    54.177
28963.1     37.845    90.497
29384.4     38.191   130.140
29811.8     37.970   174.083
30245.4     37.225  -137.957
30685.3     36.283   -87.520
31131.7     35.674   -35.474
31584.5     36.147    16.307
32043.9     37.837    66.847
32510.0     40.083   114.277
32982.8     42.094   156.101
33462.6     43.536  -165.633
33949.3     44.422  -126.611
34443.1     44.799   -84.976
34944.1     44.747   -40.719
35452.4     44.337     5.722
35968.0     43.734    52.835
36491.2     43.099    98.990
37022.0     42.503   143.346
37560.5     42.261  -174.722
38106.8     42.244  -138.124
38661.1     42.554  -104.974
39223.4     42.995   -79.608
39793.9     43.348   -59.362
