Freq[Hz]     dBSPL  Phase[Deg]
5.00000    -11.136   -12.863
5.07273    -10.782   -12.949
5.14651    -10.396   -13.042
5.22137     -9.966   -13.143
5.29732     -9.517   -13.249
5.37437     -9.048   -13.359
5.45254     -8.578   -13.472
5.53185     -8.109   -13.586
5.61231     -7.639   -13.701
5.69394     -7.170   -13.819
5.77676     -6.701   -13.938
5.86079     -6.231   -14.059
5.94604     -5.762   -14.181
6.03252     -5.292   -14.306
6.12027     -4.823   -14.432
6.20929     -4.353   -14.560
6.29961     -3.884   -14.690
6.39124     -3.414   -14.821
6.48420     -2.945   -14.955
6.57851     -2.475   -15.091
6.67420     -2.006   -15.228
6.77128     -1.536   -15.368
6.86977     -1.067   -15.510
6.96969     -0.597   -15.653
7.07107     -0.127   -15.799
7.17392      0.342   -15.947
7.27827      0.812   -16.097
7.38413      1.282   -16.249
7.49154      1.751   -16.404
7.60050      2.221   -16.561
7.71105      2.691   -16.720
7.82321      3.161   -16.881
7.93701      3.631   -17.045
8.05245      4.100   -17.211
8.16958      4.570   -17.380
8.28841      5.040   -17.551
8.40896      5.510   -17.724
8.53128      5.980   -17.900
8.65537      6.450   -18.079
8.78126      6.920   -18.260
8.90899      7.390   -18.444
9.03857      7.861   -18.630
9.17004      8.331   -18.820
9.30342      8.801   -19.012
9.43874      9.271   -19.207
9.57603      9.741   -19.404
9.71532     10.212   -19.605
9.85663     10.682   -19.809
10.0000     11.153   -20.015
10.1455     11.623   -20.225
10.2930     12.094   -20.438
10.4427     12.564   -20.653
10.5946     13.035   -20.872
10.7487     13.505   -21.095
10.9051     13.976   -21.320
11.0637     14.447   -21.549
11.2246     14.918   -21.781
11.3879     15.389   -22.017
11.5535     15.860   -22.256
11.7216     16.331   -22.498
11.8921     16.802   -22.744
12.0650     17.273   -22.994
12.2405     17.744   -23.248
12.4186     18.216   -23.505
12.5992     18.687   -23.766
12.7825     19.159   -24.031
12.9684     19.630   -24.300
13.1570     20.102   -24.573
13.3484     20.574   -24.849
13.5426     21.045   -25.130
13.7395     21.517   -25.416
13.9394     21.989   -25.705
14.1421     22.461   -25.999
14.3478     22.934   -26.297
14.5565     23.406   -26.599
14.7683     23.879   -26.907
14.9831     24.351   -27.218
15.2010     24.824   -27.535
15.4221     25.297   -27.856
15.6464     25.770   -28.182
15.8740     26.243   -28.512
16.1049     26.716   -28.848
16.3392     27.189   -29.189
16.5768     27.663   -29.535
16.8179     28.137   -29.886
17.0626     28.610   -30.243
17.3107     29.085   -30.605
17.5625     29.559   -30.973
17.8180     30.033   -31.346
18.0771     30.508   -31.725
18.3401     30.982   -32.110
18.6068     31.457   -32.500
18.8775     31.933   -32.897
19.1521     32.408   -33.300
19.4306     32.884   -33.709
19.7133     33.357   -34.141
20.0000     33.825   -34.619
20.2909     34.280   -35.150
20.5860     34.719   -35.700
20.8855     35.146   -36.121
21.1893     35.564   -36.343
21.4975     35.984   -36.443
21.8102     36.418   -36.500
22.1274     36.870   -36.593
22.4492     37.343   -36.777
22.7758     37.834   -37.042
23.1071     38.339   -37.429
23.4432     38.851   -37.936
23.7841     39.363   -38.613
24.1301     39.868   -39.553
24.4811     40.363   -40.624
24.8372     40.848   -41.632
25.1984     41.324   -42.499
25.5649     41.796   -43.186
25.9368     42.269   -43.792
26.3141     42.743   -44.447
26.6968     43.220   -45.209
27.0851     43.698   -46.112
27.4791     44.176   -47.112
27.8788     44.654   -48.119
28.2843     45.131   -49.054
28.6957     45.608   -49.924
29.1131     46.085   -50.795
29.5365     46.563   -51.706
29.9661     47.042   -52.709
30.4020     47.521   -53.746
30.8442     47.997   -54.786
31.2929     48.468   -55.854
31.7480     48.933   -56.953
32.2098     49.394   -58.126
32.6783     49.856   -59.354
33.1536     50.325   -60.412
33.6359     50.804   -61.188
34.1251     51.297   -61.676
34.6215     51.802   -62.221
35.1250     52.318   -63.060
35.6359     52.841   -64.248
36.1543     53.368   -65.573
36.6802     53.896   -66.915
37.2137     54.421   -68.205
37.7550     54.942   -69.461
38.3041     55.460   -70.822
38.8613     55.975   -72.448
39.4265     56.490   -74.130
40.0000     57.006   -75.704
40.5818     57.525   -77.086
41.1721     58.046   -78.448
41.7710     58.566   -79.952
42.3785     59.084   -81.714
42.9949     59.595   -83.709
43.6203     60.098   -85.834
44.2548     60.591   -87.955
44.8985     61.078   -89.948
45.5515     61.561   -91.763
46.2141     62.043   -93.459
46.8863     62.529   -95.139
47.5683     63.019   -96.885
48.2602     63.515   -98.750
48.9621     64.016  -100.737
49.6743     64.520  -102.819
50.3968     65.025  -104.978
51.1299     65.529  -107.193
51.8736     66.030  -109.452
52.6281     66.527  -111.758
53.3936     67.019  -114.125
54.1702     67.507  -116.564
54.9581     67.991  -119.072
55.7575     68.470  -121.658
56.5685     68.944  -124.333
57.3914     69.412  -127.071
58.2261     69.874  -129.863
59.0730     70.326  -132.722
59.9323     70.767  -135.669
60.8040     71.195  -138.698
61.6884     71.611  -141.793
62.5857     72.016  -144.947
63.4960     72.409  -148.156
64.4196     72.787  -151.409
65.3566     73.147  -154.704
66.3073     73.492  -158.044
67.2717     73.824  -161.422
68.2502     74.144  -164.827
69.2429     74.454  -168.269
70.2501     74.750  -171.763
71.2719     75.024  -175.307
72.3086     75.271  -178.861
73.3603     75.495   177.630
74.4274     75.697   174.188
75.5099     75.884   170.818
76.6083     76.059   167.501
77.7226     76.222   164.207
78.8531     76.371   160.939
80.0000     76.506   157.699
81.1636     76.628   154.513
82.3442     76.736   151.403
83.5419     76.833   148.357
84.7570     76.917   145.373
85.9899     76.991   142.462
87.2406     77.053   139.633
88.5096     77.108   136.889
89.7970     77.157   134.230
91.1031     77.204   131.643
92.4282     77.250   129.109
93.7726     77.293   126.626
95.1366     77.331   124.194
96.5204     77.366   121.802
97.9243     77.395   119.456
99.3486     77.419   117.165
100.794     77.438   114.929
102.260     77.454   112.752
103.747     77.468   110.640
105.256     77.482   108.589
106.787     77.500   106.565
108.340     77.516   104.543
109.916     77.528   102.540
111.515     77.533   100.569
113.137     77.531    98.647
114.783     77.525    96.798
116.452     77.519    95.014
118.146     77.515    93.264
119.865     77.510    91.541
121.608     77.502    89.847
123.377     77.491    88.198
125.171     77.479    86.612
126.992     77.468    85.084
128.839     77.460    83.596
130.713     77.456    82.132
132.615     77.455    80.669
134.543     77.452    79.204
136.500     77.446    77.756
138.486     77.437    76.337
140.500     77.428    74.953
142.544     77.419    73.611
144.617     77.413    72.304
146.721     77.410    71.019
148.855     77.408    69.745
151.020     77.408    68.472
153.217     77.406    67.202
155.445     77.403    65.936
157.706     77.396    64.674
160.000     77.383    63.430
162.327     77.365    62.231
164.688     77.345    61.091
167.084     77.328    60.012
169.514     77.316    58.983
171.980     77.312    57.974
174.481     77.313    56.959
177.019     77.315    55.934
179.594     77.316    54.897
182.206     77.314    53.859
184.856     77.311    52.833
187.545     77.305    51.819
190.273     77.297    50.829
193.041     77.287    49.877
195.849     77.278    48.961
198.697     77.271    48.079
201.587     77.267    47.208
204.520     77.262    46.340
207.494     77.253    45.511
210.512     77.245    44.756
213.574     77.246    44.085
216.681     77.266    43.453
219.833     77.306    42.761
223.030     77.355    41.922
226.274     77.395    40.899
229.565     77.411    39.781
232.905     77.402    38.702
236.292     77.378    37.740
239.729     77.353    36.932
243.216     77.338    36.246
246.754     77.337    35.598
250.343     77.345    34.937
253.984     77.356    34.277
257.678     77.376    33.641
261.426     77.408    32.971
265.229     77.446    32.199
269.087     77.480    31.315
273.001     77.498    30.339
276.972     77.494    29.372
281.000     77.476    28.545
285.088     77.466    27.873
289.234     77.474    27.271
293.441     77.501    26.608
297.709     77.534    25.814
302.040     77.556    24.924
306.433     77.564    24.027
310.890     77.562    23.203
315.412     77.560    22.488
320.000     77.571    21.826
324.655     77.596    21.099
329.377     77.622    20.262
334.168     77.641    19.329
339.028     77.644    18.350
343.959     77.628    17.436
348.962     77.613    16.639
354.038     77.604    15.864
359.188     77.593    15.083
364.412     77.583    14.328
369.713     77.574    13.530
375.090     77.554    12.714
380.546     77.529    11.976
386.081     77.510    11.271
391.697     77.492    10.565
397.394     77.465     9.848
403.175     77.420     9.194
409.039     77.372     8.730
414.989     77.345     8.412
421.025     77.345     8.142
427.149     77.374     7.839
433.362     77.425     7.373
439.665     77.469     6.686
446.060     77.491     5.862
452.548     77.489     5.025
459.131     77.466     4.246
465.809     77.431     3.606
472.584     77.407     3.118
479.458     77.400     2.674
486.432     77.402     2.223
493.507     77.413     1.787
500.686     77.439     1.347
507.968     77.476     0.819
515.357     77.506     0.216
522.853     77.532    -0.364
530.458     77.561    -0.912
538.174     77.596    -1.444
546.002     77.641    -2.033
553.943     77.689    -2.729
562.001     77.740    -3.496
570.175     77.789    -4.394
578.469     77.812    -5.397
586.883     77.815    -6.327
595.419     77.813    -7.160
604.080     77.802    -7.996
612.866     77.781    -8.786
621.780     77.764    -9.396
630.824     77.761    -9.849
640.000     77.786   -10.240
649.309     77.843   -10.677
658.753     77.906   -11.350
668.335     77.948   -12.261
678.056     77.960   -13.250
687.919     77.946   -14.114
697.925     77.946   -14.739
708.077     78.004   -15.441
718.376     78.053   -16.631
728.825     78.004   -17.821
739.426     77.942   -18.378
750.181     77.956   -18.656
761.093     78.019   -19.151
772.163     78.093   -19.876
783.394     78.159   -20.839
794.789     78.183   -22.062
806.349     78.153   -23.248
818.078     78.097   -24.239
829.977     78.037   -24.984
842.050     78.010   -25.360
854.298     78.050   -25.573
866.724     78.141   -25.896
879.330     78.262   -26.436
892.120     78.400   -27.371
905.097     78.514   -28.723
918.262     78.572   -30.284
931.618     78.588   -31.841
945.169     78.592   -33.211
958.917     78.599   -34.343
972.864     78.626   -35.429
987.015     78.674   -36.693
1001.37     78.710   -38.111
1015.94     78.725   -39.655
1030.71     78.716   -41.350
1045.71     78.668   -42.966
1060.92     78.596   -44.340
1076.35     78.507   -45.531
1092.00     78.396   -46.512
1107.89     78.298   -47.169
1124.00     78.257   -47.684
1140.35     78.269   -48.362
1156.94     78.305   -49.183
1173.77     78.351   -50.214
1190.84     78.366   -51.503
1208.16     78.329   -52.665
1225.73     78.298   -53.588
1243.56     78.302   -54.485
1261.65     78.327   -55.446
1280.00     78.376   -56.563
1298.62     78.421   -57.846
1317.51     78.447   -59.196
1336.67     78.461   -60.613
1356.11     78.440   -62.036
1375.84     78.392   -63.311
1395.85     78.333   -64.422
1416.15     78.269   -65.356
1436.75     78.223   -66.187
1457.65     78.198   -67.015
1478.85     78.190   -67.799
1500.36     78.198   -68.655
1522.19     78.222   -69.563
1544.33     78.261   -70.469
1566.79     78.293   -71.533
1589.58     78.307   -72.556
1612.70     78.323   -73.316
1636.16     78.383   -74.034
1659.95     78.504   -75.045
1684.10     78.626   -76.549
1708.60     78.700   -78.458
1733.45     78.713   -80.449
1758.66     78.658   -82.248
1784.24     78.553   -83.684
1810.19     78.442   -84.628
1836.52     78.352   -85.057
1863.24     78.310   -85.125
1890.34     78.348   -85.140
1917.83     78.470   -85.355
1945.73     78.644   -85.900
1974.03     78.828   -86.929
2002.74     78.970   -88.475
2031.87     79.029   -90.322
2061.43     79.010   -92.192
2091.41     78.948   -93.916
2121.83     78.864   -95.370
2152.69     78.788   -96.337
2184.01     78.753   -96.812
2215.77     78.759   -97.143
2248.00     78.800   -97.592
2280.70     78.877   -98.306
2313.87     78.972   -99.434
2347.53     79.044  -100.906
2381.68     79.062  -102.388
2416.32     79.027  -103.608
2451.46     78.963  -104.478
2487.12     78.891  -104.906
2523.30     78.841  -104.909
2560.00     78.850  -104.761
2597.24     78.911  -104.687
2635.01     78.998  -104.845
2673.34     79.089  -105.457
2712.23     79.149  -106.493
2751.68     79.155  -107.697
2791.70     79.113  -108.874
2832.31     79.038  -109.748
2873.50     78.970  -110.117
2915.30     78.953  -110.134
2957.70     78.993  -110.041
3000.72     79.072  -110.066
3044.37     79.162  -110.526
3088.65     79.201  -111.533
3133.58     79.140  -112.593
3179.16     79.067  -113.374
3225.40     78.955  -114.193
3272.31     78.797  -114.533
3319.91     78.656  -114.294
3368.20     78.587  -113.764
3417.19     78.601  -113.460
3466.89     78.644  -113.806
3517.32     78.633  -114.802
3568.48     78.507  -116.071
3620.39     78.249  -117.095
3673.05     77.903  -117.476
3726.47     77.553  -117.179
3780.67     77.249  -116.535
3835.67     76.985  -115.971
3891.46     76.708  -115.678
3948.06     76.357  -115.463
4005.49     75.911  -114.923
4063.75     75.415  -113.740
4122.86     74.914  -111.909
4182.82     74.424  -109.614
4243.66     73.929  -106.953
4305.39     73.401  -103.782
4368.01     72.854   -99.747
4431.55     72.358   -94.709
4496.01     71.980   -88.891
4561.40     71.733   -82.638
4627.75     71.600   -76.270
4695.06     71.561   -69.797
4763.35     71.638   -63.145
4832.64     71.889   -56.576
4902.93     72.340   -50.921
4974.24     72.781   -47.163
5046.60     73.063   -43.526
5120.00     73.401   -39.722
5194.47     73.792   -36.458
5270.03     74.173   -33.904
5346.68     74.484   -31.928
5424.45     74.698   -30.131
5503.35     74.836   -28.163
5583.40     74.930   -25.953
5664.61     75.002   -23.598
5747.01     75.054   -21.255
5830.60     75.062   -19.018
5915.41     75.004   -16.774
6001.45     74.878   -14.335
6088.74     74.683   -11.582
6177.30     74.414    -8.311
6267.15     74.089    -4.218
6358.31     73.767     0.901
6450.80     73.519     6.925
6544.62     73.390    13.503
6639.82     73.397    20.354
6736.40     73.542    27.174
6834.38     73.787    33.635
6933.79     74.082    39.777
7034.64     74.417    45.731
7136.96     74.786    51.380
7240.77     75.160    56.689
7346.09     75.537    61.686
7452.94     75.908    66.256
7561.35     76.253    70.415
7671.33     76.568    74.265
7782.91     76.839    77.890
7896.12     77.056    81.495
8010.97     77.227    85.206
8127.49     77.355    89.059
8245.71     77.454    93.115
8365.65     77.542    97.308
8487.33     77.624   101.572
8610.78     77.708   105.873
8736.03     77.795   110.085
8863.09     77.853   114.163
8992.01     77.850   118.223
9122.80     77.772   122.503
9255.50     77.634   127.222
9390.12     77.461   132.476
9526.70     77.287   138.308
9665.27     77.153   144.645
9805.86     77.073   151.266
9948.49     77.035   158.007
10093.2     77.016   164.823
10240.0     77.007   171.742
10388.9     77.002   178.801
10540.1     77.003  -173.932
10693.4     77.028  -166.385
10848.9     77.101  -158.685
11006.7     77.215  -151.019
11166.8     77.359  -143.470
11329.2     77.522  -136.144
11494.0     77.674  -129.054
11661.2     77.799  -122.051
11830.8     77.900  -115.047
12002.9     77.975  -108.036
12177.5     78.017  -100.957
12354.6     78.030   -93.769
12534.3     78.008   -86.453
12716.6     77.954   -78.862
12901.6     77.895   -70.919
13089.2     77.848   -62.687
13279.6     77.826   -54.243
13472.8     77.831   -45.765
13668.8     77.836   -37.338
13867.6     77.822   -28.896
14069.3     77.780   -20.335
14273.9     77.713   -11.492
14481.5     77.646    -2.319
14692.2     77.588     7.161
14905.9     77.549    16.882
15122.7     77.528    26.746
15342.7     77.524    36.737
15565.8     77.541    46.824
15792.2     77.580    56.949
16021.9     77.633    67.072
16255.0     77.690    77.178
16491.4     77.742    87.285
16731.3     77.777    97.419
16974.7     77.779   107.654
17221.6     77.737   118.115
17472.1     77.649   128.940
17726.2     77.519   140.206
17984.0     77.365   151.944
18245.6     77.209   164.154
18511.0     77.070   176.723
18780.2     76.971  -170.477
19053.4     76.923  -157.542
19330.5     76.925  -144.626
19611.7     76.969  -131.836
19897.0     77.030  -119.166
20186.4     77.078  -106.556
20480.0     77.092   -93.859
20777.9     77.063   -80.903
21080.1     77.001   -67.538
21386.7     76.920   -53.663
21697.8     76.843   -39.316
22013.4     76.785   -24.617
22333.6     76.739    -9.731
22658.4     76.692     5.229
22988.0     76.619    20.290
23322.4     76.504    35.557
23661.6     76.358    51.211
24005.8     76.213    67.407
24355.0     76.097    84.120
24709.2     76.030   101.229
25068.6     76.006   118.602
25433.2     75.988   136.085
25803.2     75.940   153.618
26178.5     75.847   171.295
26559.3     75.719  -170.730
26945.6     75.582  -152.312
27337.5     75.467  -133.385
27735.2     75.394  -113.987
28138.6     75.358   -94.243
28547.9     75.333   -74.302
28963.1     75.288   -54.187
29384.4     75.206   -33.745
29811.8     75.094   -12.781
30245.4     74.987     8.846
30685.3     74.940    31.147
31131.7     74.995    53.932
31584.5     75.161    76.927
32043.9     75.415    99.919
32510.0     75.720   122.816
32982.8     76.048   145.629
33462.6     76.380   168.385
33949.3     76.700  -168.898
34443.1     76.994  -146.191
34944.1     77.247  -123.437
35452.4     77.452  -100.491
35968.0     77.618   -77.153
36491.2     77.767   -53.286
37022.0     77.923   -28.864
37560.5     78.104    -3.944
38106.8     78.286    19.436
38661.1     78.474    41.424
39223.4     78.620    59.435
39793.9     78.740    74.806
