Freq[Hz]     dBSPL  Phase[Deg]
5.00000    -12.327   -12.967
5.07273    -11.970   -13.059
5.14651    -11.580   -13.160
5.22137    -11.145   -13.272
5.29732    -10.690   -13.389
5.37437    -10.215   -13.514
5.45254     -9.739   -13.640
5.53185     -9.264   -13.767
5.61231     -8.789   -13.897
5.69394     -8.313   -14.029
5.77676     -7.838   -14.162
5.86079     -7.362   -14.297
5.94604     -6.887   -14.435
6.03252     -6.411   -14.574
6.12027     -5.935   -14.716
6.20929     -5.460   -14.859
6.29961     -4.984   -15.005
6.39124     -4.509   -15.152
6.48420     -4.033   -15.302
6.57851     -3.557   -15.454
6.67420     -3.082   -15.608
6.77128     -2.606   -15.765
6.86977     -2.130   -15.924
6.96969     -1.655   -16.085
7.07107     -1.179   -16.248
7.17392     -0.703   -16.414
7.27827     -0.227   -16.582
7.38413      0.249   -16.753
7.49154      0.724   -16.926
7.60050      1.200   -17.102
7.71105      1.676   -17.280
7.82321      2.152   -17.461
7.93701      2.628   -17.645
8.05245      3.104   -17.831
8.16958      3.580   -18.020
8.28841      4.056   -18.212
8.40896      4.532   -18.406
8.53128      5.008   -18.603
8.65537      5.485   -18.804
8.78126      5.961   -19.007
8.90899      6.437   -19.213
9.03857      6.913   -19.422
9.17004      7.389   -19.634
9.30342      7.866   -19.850
9.43874      8.342   -20.068
9.57603      8.819   -20.290
9.71532      9.295   -20.515
9.85663      9.772   -20.743
10.0000     10.248   -20.975
10.1455     10.725   -21.210
10.2930     11.201   -21.448
10.4427     11.678   -21.690
10.5946     12.155   -21.936
10.7487     12.632   -22.185
10.9051     13.108   -22.438
11.0637     13.585   -22.694
11.2246     14.062   -22.955
11.3879     14.539   -23.219
11.5535     15.016   -23.487
11.7216     15.494   -23.759
11.8921     15.971   -24.035
12.0650     16.448   -24.315
12.2405     16.925   -24.599
12.4186     17.403   -24.887
12.5992     17.880   -25.180
12.7825     18.358   -25.477
12.9684     18.836   -25.778
13.1570     19.313   -26.084
13.3484     19.791   -26.394
13.5426     20.269   -26.709
13.7395     20.747   -27.029
13.9394     21.226   -27.353
14.1421     21.704   -27.682
14.3478     22.182   -28.016
14.5565     22.661   -28.355
14.7683     23.139   -28.699
14.9831     23.618   -29.048
15.2010     24.097   -29.403
15.4221     24.576   -29.763
15.6464     25.055   -30.128
15.8740     25.534   -30.498
16.1049     26.013   -30.875
16.3392     26.493   -31.256
16.5768     26.972   -31.644
16.8179     27.452   -32.037
17.0626     27.932   -32.437
17.3107     28.412   -32.842
17.5625     28.893   -33.254
17.8180     29.373   -33.671
18.0771     29.854   -34.096
18.3401     30.335   -34.526
18.6068     30.816   -34.964
18.8775     31.297   -35.408
19.1521     31.779   -35.859
19.4306     32.260   -36.316
19.7133     32.742   -36.800
20.0000     33.222   -37.333
20.2909     33.697   -37.920
20.5860     34.161   -38.513
20.8855     34.607   -38.940
21.1893     35.035   -39.129
21.4975     35.453   -39.207
21.8102     35.877   -39.298
22.1274     36.319   -39.482
22.4492     36.790   -39.771
22.7758     37.293   -40.110
23.1071     37.816   -40.532
23.4432     38.347   -41.025
23.7841     38.876   -41.689
24.1301     39.392   -42.689
24.4811     39.894   -43.882
24.8372     40.379   -45.027
25.1984     40.853   -46.024
25.5649     41.321   -46.810
25.9368     41.790   -47.496
26.3141     42.262   -48.221
26.6968     42.739   -49.053
27.0851     43.218   -50.032
27.4791     43.697   -51.113
27.8788     44.174   -52.201
28.2843     44.649   -53.202
28.6957     45.123   -54.126
29.1131     45.599   -55.046
29.5365     46.079   -56.016
29.9661     46.562   -57.104
30.4020     47.043   -58.242
30.8442     47.519   -59.385
31.2929     47.989   -60.549
31.7480     48.453   -61.732
32.2098     48.913   -62.996
32.6783     49.372   -64.352
33.1536     49.830   -65.553
33.6359     50.290   -66.444
34.1251     50.758   -66.984
34.6215     51.247   -67.497
35.1250     51.762   -68.255
35.6359     52.293   -69.376
36.1543     52.832   -70.690
36.6802     53.373   -72.090
37.2137     53.909   -73.490
37.7550     54.437   -74.898
38.3041     54.959   -76.414
38.8613     55.478   -78.183
39.4265     55.992   -79.997
40.0000     56.501   -81.662
40.5818     57.010   -83.086
41.1721     57.523   -84.452
41.7710     58.044   -85.944
42.3785     58.572   -87.710
42.9949     59.100   -89.754
43.6203     59.623   -91.985
44.2548     60.136   -94.274
44.8985     60.632   -96.485
45.5515     61.114   -98.526
46.2141     61.588  -100.423
46.8863     62.060  -102.266
47.5683     62.538  -104.131
48.2602     63.024  -106.088
48.9621     63.518  -108.156
49.6743     64.018  -110.311
50.3968     64.522  -112.545
51.1299     65.027  -114.840
51.8736     65.531  -117.183
52.6281     66.031  -119.591
53.3936     66.527  -122.083
54.1702     67.018  -124.668
54.9581     67.503  -127.335
55.7575     67.979  -130.079
56.5685     68.449  -132.907
57.3914     68.911  -135.794
58.2261     69.364  -138.716
59.0730     69.810  -141.688
59.9323     70.247  -144.738
60.8040     70.674  -147.869
61.6884     71.090  -151.068
62.5857     71.497  -154.336
63.4960     71.892  -157.680
64.4196     72.271  -161.092
65.3566     72.630  -164.566
66.3073     72.970  -168.094
67.2717     73.292  -171.655
68.2502     73.600  -175.216
69.2429     73.898  -178.770
70.2501     74.189   177.670
71.2719     74.465   174.074
72.3086     74.720   170.450
73.3603     74.952   166.834
74.4274     75.162   163.238
75.5099     75.353   159.675
76.6083     75.529   156.145
77.7226     75.689   152.640
78.8531     75.834   149.172
80.0000     75.963   145.749
81.1636     76.076   142.401
82.3442     76.178   139.160
83.5419     76.273   135.999
84.7570     76.361   132.891
85.9899     76.441   129.832
87.2406     76.514   126.816
88.5096     76.576   123.846
89.7970     76.629   120.939
91.1031     76.675   118.100
92.4282     76.719   115.322
93.7726     76.758   112.600
95.1366     76.791   109.934
96.5204     76.819   107.319
97.9243     76.843   104.754
99.3486     76.862   102.248
100.794     76.878    99.797
102.260     76.892    97.392
103.747     76.904    95.035
105.256     76.912    92.732
106.787     76.920    90.470
108.340     76.927    88.238
109.916     76.932    86.040
111.515     76.932    83.882
113.137     76.929    81.774
114.783     76.926    79.732
116.452     76.928    77.731
118.146     76.936    75.725
119.865     76.944    73.697
121.608     76.946    71.644
123.377     76.936    69.595
125.171     76.914    67.612
126.992     76.887    65.719
128.839     76.860    63.905
130.713     76.839    62.147
132.615     76.823    60.404
134.543     76.809    58.660
136.500     76.793    56.931
138.486     76.774    55.231
140.500     76.754    53.573
142.544     76.734    51.965
144.617     76.718    50.408
146.721     76.709    48.879
148.855     76.707    47.349
151.020     76.708    45.791
153.217     76.709    44.196
155.445     76.704    42.577
157.706     76.691    40.961
160.000     76.669    39.381
162.327     76.644    37.878
164.688     76.624    36.451
167.084     76.613    35.056
169.514     76.613    33.653
171.980     76.617    32.205
174.481     76.620    30.696
177.019     76.614    29.157
179.594     76.597    27.638
182.206     76.573    26.179
184.856     76.551    24.795
187.545     76.536    23.460
190.273     76.530    22.128
193.041     76.528    20.780
195.849     76.530    19.412
198.697     76.534    18.012
201.587     76.538    16.558
204.520     76.537    15.046
207.494     76.526    13.500
210.512     76.501    11.959
213.574     76.464    10.471
216.681     76.417     9.057
219.833     76.365     7.724
223.030     76.313     6.498
226.274     76.273     5.363
229.565     76.246     4.272
232.905     76.236     3.224
236.292     76.251     2.174
239.729     76.286     0.997
243.216     76.325    -0.375
246.754     76.350    -1.912
250.343     76.350    -3.540
253.984     76.324    -5.156
257.678     76.274    -6.649
261.426     76.222    -7.962
265.229     76.188    -9.164
269.087     76.175   -10.397
273.001     76.172   -11.731
276.972     76.164   -13.149
281.000     76.144   -14.571
285.088     76.122   -15.914
289.234     76.107   -17.204
293.441     76.111   -18.519
297.709     76.124   -19.965
302.040     76.124   -21.572
306.433     76.102   -23.206
310.890     76.063   -24.765
315.412     76.022   -26.226
320.000     75.993   -27.626
324.655     75.978   -29.106
329.377     75.965   -30.714
334.168     75.945   -32.412
339.028     75.912   -34.194
343.959     75.862   -36.023
348.962     75.790   -37.857
354.038     75.694   -39.656
359.188     75.573   -41.325
364.412     75.444   -42.805
369.713     75.327   -44.111
375.090     75.232   -45.353
380.546     75.151   -46.652
386.081     75.073   -47.991
391.697     74.988   -49.351
397.394     74.901   -50.746
403.175     74.809   -52.139
409.039     74.707   -53.561
414.989     74.586   -54.996
421.025     74.438   -56.263
427.149     74.285   -57.204
433.362     74.166   -57.850
439.665     74.106   -58.394
446.060     74.104   -59.103
452.548     74.128   -60.148
459.131     74.138   -61.480
465.809     74.131   -62.999
472.584     74.090   -64.629
479.458     74.004   -66.126
486.432     73.911   -67.338
493.507     73.834   -68.383
500.686     73.783   -69.326
507.968     73.780   -70.287
515.357     73.803   -71.573
522.853     73.810   -73.178
530.458     73.794   -74.882
538.174     73.761   -76.640
546.002     73.731   -78.259
553.943     73.767   -79.773
562.001     73.875   -81.762
570.175     73.971   -84.485
578.469     73.974   -87.742
586.883     73.843   -91.137
595.419     73.594   -94.030
604.080     73.285   -96.006
612.866     73.009   -97.100
621.780     72.870   -97.735
630.824     72.858   -98.589
640.000     72.891  -100.072
649.309     72.921  -102.123
658.753     72.909  -104.457
668.335     72.843  -106.821
678.056     72.762  -108.986
687.919     72.725  -110.962
697.925     72.749  -113.143
708.077     72.813  -116.045
718.376     72.809  -119.877
728.825     72.626  -123.826
739.426     72.372  -127.171
750.181     72.125  -130.324
761.093     71.842  -133.449
772.163     71.530  -136.344
783.394     71.181  -138.918
794.789     70.784  -140.813
806.349     70.410  -141.773
818.078     70.119  -142.143
829.977     69.944  -142.367
842.050     69.916  -143.114
854.298     69.956  -144.872
866.724     69.990  -147.346
879.330     70.020  -150.493
892.120     69.956  -154.358
905.097     69.708  -158.213
918.262     69.292  -161.309
931.618     68.782  -163.419
945.169     68.306  -164.733
958.917     67.983  -165.483
972.864     67.850  -166.265
987.015     67.820  -167.740
1001.37     67.785  -169.586
1015.94     67.688  -171.690
1030.71     67.480  -174.218
1045.71     67.196  -176.657
1060.92     66.903  -179.028
1076.35     66.560   178.621
1092.00     66.154   177.330
1107.89     65.840   177.694
1124.00     65.762   178.571
1140.35     65.847   178.905
1156.94     66.031   178.539
1173.77     66.207   176.466
1190.84     66.128   172.913
1208.16     65.802   169.958
1225.73     65.434   168.021
1243.56     65.082   166.896
1261.65     64.874   166.706
1280.00     64.892   166.408
1298.62     64.993   165.577
1317.51     65.191   164.271
1336.67     65.398   161.833
1356.11     65.475   158.819
1375.84     65.571   155.704
1395.85     65.683   152.051
1416.15     65.759   148.342
1436.75     65.841   144.640
1457.65     65.804   141.028
1478.85     65.622   137.904
1500.36     65.308   135.029
1522.19     64.929   132.437
1544.33     64.678   129.817
1566.79     64.546   126.521
1589.58     64.467   122.610
1612.70     64.346   118.599
1636.16     64.090   114.958
1659.95     63.739   111.908
1684.10     63.301   109.736
1708.60     62.902   108.291
1733.45     62.691   107.195
1758.66     62.645   105.982
1784.24     62.771   103.933
1810.19     62.980   101.235
1836.52     63.176    98.339
1863.24     63.394    94.822
1890.34     63.603    90.313
1917.83     63.757    84.595
1945.73     63.814    77.729
1974.03     63.686    70.031
2002.74     63.302    61.932
2031.87     62.649    54.164
2061.43     61.814    47.446
2091.41     60.921    42.016
2121.83     60.156    38.008
2152.69     59.762    35.559
2184.01     59.660    33.516
2215.77     59.647    29.778
2248.00     59.542    23.410
2280.70     59.074    14.123
2313.87     58.207     3.342
2347.53     57.079    -5.342
2381.68     55.731    -9.733
2416.32     54.380    -9.837
2451.46     53.404    -6.570
2487.12     52.781    -3.380
2523.30     52.236    -5.181
2560.00     51.811   -14.320
2597.24     51.201   -29.069
2635.01     49.985   -50.725
2673.34     48.630   -82.554
2712.23     48.072  -123.535
2751.68     48.914  -167.603
2791.70     50.494   154.527
2832.31     51.706   123.236
2873.50     52.420    95.997
2915.30     52.832    72.321
2957.70     53.126    52.571
3000.72     53.130    36.852
3044.37     52.902    25.095
3088.65     52.752    16.072
3133.58     52.886     7.619
3179.16     53.431    -1.317
3225.40     54.239    -9.520
3272.31     55.063   -16.599
3319.91     55.612   -22.816
3368.20     55.792   -26.743
3417.19     55.854   -28.388
3466.89     56.027   -29.082
3517.32     56.394   -29.633
3568.48     56.985   -31.201
3620.39     57.699   -34.471
3673.05     58.374   -39.160
3726.47     58.899   -45.078
3780.67     59.228   -51.639
3835.67     59.397   -58.216
3891.46     59.454   -64.877
3948.06     59.438   -71.543
4005.49     59.429   -77.962
4063.75     59.486   -84.360
4122.86     59.594   -90.983
4182.82     59.684   -97.753
4243.66     59.686  -104.467
4305.39     59.581  -110.704
4368.01     59.448  -115.866
4431.55     59.434  -119.915
4496.01     59.626  -123.712
4561.40     60.044  -128.178
4627.75     60.602  -134.339
4695.06     61.138  -142.940
4763.35     61.531  -153.395
4832.64     61.731  -164.507
4902.93     61.749  -175.394
4974.24     61.523   174.364
5046.60     61.064   166.078
5120.00     60.589   159.433
5194.47     60.157   153.332
5270.03     59.731   147.334
5346.68     59.234   141.692
5424.45     58.633   136.929
5503.35     57.965   133.539
5583.40     57.305   131.441
5664.61     56.705   130.111
5747.01     56.213   129.294
5830.60     55.874   128.615
5915.41     55.721   127.530
6001.45     55.761   125.762
6088.74     55.958   122.765
6177.30     56.257   117.750
6267.15     56.527   110.439
6358.31     56.676   101.219
6450.80     56.672    91.024
6544.62     56.458    81.053
6639.82     56.079    72.308
6736.40     55.605    65.418
6834.38     55.040    60.572
6933.79     54.506    57.233
7034.64     54.132    54.618
7136.96     53.943    52.362
7240.77     53.963    49.791
7346.09     54.135    46.161
7452.94     54.380    41.736
7561.35     54.658    36.417
7671.33     54.895    29.471
7782.91     55.061    21.073
7896.12     55.182    11.692
8010.97     55.272     1.570
8127.49     55.348    -8.811
8245.71     55.409   -19.291
8365.65     55.424   -30.144
8487.33     55.345   -41.730
8610.78     55.096   -54.361
8736.03     54.596   -67.482
8863.09     53.835   -79.754
8992.01     52.867   -89.788
9122.80     51.746   -96.719
9255.50     50.395   -99.709
9390.12     48.624   -98.014
9526.70     46.535   -91.528
9665.27     44.480   -79.692
9805.86     43.140   -64.737
9948.49     43.563   -51.727
10093.2     45.525   -43.135
10240.0     47.694   -41.411
10388.9     49.374   -48.444
10540.1     50.335   -61.808
10693.4     50.535   -77.786
10848.9     50.030   -92.995
11006.7     48.916  -104.452
11166.8     47.287  -110.389
11329.2     45.418  -110.309
11494.0     43.804  -105.374
11661.2     43.136   -98.154
11830.8     43.766   -92.011
12002.9     45.277   -90.407
12177.5     47.016   -95.625
12354.6     48.503  -108.000
12534.3     49.500  -126.273
12716.6     49.973  -148.191
12901.6     49.958  -171.711
13089.2     49.484   164.310
13279.6     48.607   140.579
13472.8     47.304   117.407
13668.8     45.484    96.706
13867.6     43.284    82.575
14069.3     41.090    76.732
14273.9     39.614    77.623
14481.5     39.552    81.972
14692.2     40.433    83.518
14905.9     41.183    76.676
15122.7     41.128    61.245
15342.7     40.078    43.021
15565.8     38.216    31.556
15792.2     36.142    30.878
16021.9     35.040    37.027
16255.0     35.657    42.988
16491.4     37.198    41.326
16731.3     38.549    27.729
16974.7     39.339     2.944
17221.6     39.555   -29.580
17472.1     39.216   -65.713
17726.2     38.407  -102.848
17984.0     37.275  -139.217
18245.6     36.092  -172.400
18511.0     35.071   159.146
18780.2     34.382   136.895
19053.4     34.501   120.563
19330.5     35.746   107.311
19611.7     37.532    93.815
19897.0     39.087    75.160
20186.4     40.011    46.414
20480.0     40.297     4.694
20777.9     40.185   -50.061
21080.1     40.133  -113.236
21386.7     40.475  -178.359
21697.8     41.179   120.869
22013.4     42.013    70.627
22333.6     42.528    32.794
22658.4     42.445     4.673
22988.0     41.892   -17.089
23322.4     40.950   -35.867
23661.6     39.562   -49.742
24005.8     37.835   -61.803
24355.0     35.962   -61.241
24709.2     34.016   -55.043
25068.6     32.217   -50.469
25433.2     31.186   -39.505
25803.2     31.260   -33.381
26178.5     31.858   -35.330
26559.3     32.437   -36.884
26945.6     32.969   -28.143
27337.5     33.325   -10.974
27735.2     33.628     5.171
28138.6     34.472    28.161
28547.9     35.943    47.342
28963.1     37.464    54.407
29384.4     38.618    59.593
29811.8     39.510    60.722
30245.4     40.252    61.769
30685.3     41.009    61.993
31131.7     42.183    59.945
31584.5     43.764    52.761
32043.9     45.365    40.462
32510.0     46.686    23.163
32982.8     47.522     1.810
33462.6     47.821   -20.269
33949.3     47.669   -40.717
34443.1     47.148   -58.343
34944.1     46.438   -73.128
35452.4     45.794   -86.113
35968.0     45.241   -98.014
36491.2     44.729  -108.880
37022.0     44.312  -118.439
37560.5     44.162  -126.471
38106.8     44.248  -131.853
38661.1     44.920  -133.680
39223.4     45.644  -132.805
39793.9     46.358  -130.876
