Freq[Hz]     dBSPL  Phase[Deg]
5.00000    -11.853   -10.919
5.07273    -11.497   -11.013
5.14651    -11.109   -11.115
5.22137    -10.676   -11.229
5.29732    -10.224   -11.349
5.37437     -9.751   -11.476
5.45254     -9.278   -11.605
5.53185     -8.806   -11.736
5.61231     -8.333   -11.868
5.69394     -7.860   -12.003
5.77676     -7.387   -12.140
5.86079     -6.914   -12.278
5.94604     -6.442   -12.419
6.03252     -5.969   -12.561
6.12027     -5.496   -12.706
6.20929     -5.023   -12.852
6.29961     -4.550   -13.001
6.39124     -4.077   -13.152
6.48420     -3.604   -13.306
6.57851     -3.131   -13.461
6.67420     -2.658   -13.619
6.77128     -2.185   -13.779
6.86977     -1.712   -13.941
6.96969     -1.239   -14.106
7.07107     -0.766   -14.273
7.17392     -0.293   -14.443
7.27827      0.180   -14.615
7.38413      0.653   -14.789
7.49154      1.126   -14.966
7.60050      1.599   -15.146
7.71105      2.072   -15.328
7.82321      2.546   -15.513
7.93701      3.019   -15.701
8.05245      3.492   -15.891
8.16958      3.965   -16.084
8.28841      4.439   -16.280
8.40896      4.912   -16.479
8.53128      5.385   -16.681
8.65537      5.859   -16.886
8.78126      6.332   -17.093
8.90899      6.806   -17.304
9.03857      7.279   -17.518
9.17004      7.753   -17.735
9.30342      8.226   -17.955
9.43874      8.700   -18.178
9.57603      9.174   -18.405
9.71532      9.648   -18.635
9.85663     10.121   -18.868
10.0000     10.595   -19.105
10.1455     11.069   -19.345
10.2930     11.543   -19.588
10.4427     12.017   -19.836
10.5946     12.491   -20.086
10.7487     12.965   -20.341
10.9051     13.439   -20.599
11.0637     13.913   -20.861
11.2246     14.388   -21.127
11.3879     14.862   -21.397
11.5535     15.336   -21.671
11.7216     15.811   -21.949
11.8921     16.285   -22.231
12.0650     16.760   -22.517
12.2405     17.234   -22.807
12.4186     17.709   -23.102
12.5992     18.184   -23.401
12.7825     18.659   -23.704
12.9684     19.134   -24.012
13.1570     19.609   -24.324
13.3484     20.084   -24.641
13.5426     20.559   -24.963
13.7395     21.035   -25.290
13.9394     21.510   -25.621
14.1421     21.986   -25.957
14.3478     22.461   -26.298
14.5565     22.937   -26.645
14.7683     23.413   -26.996
14.9831     23.889   -27.353
15.2010     24.365   -27.715
15.4221     24.841   -28.083
15.6464     25.317   -28.456
15.8740     25.794   -28.834
16.1049     26.271   -29.219
16.3392     26.747   -29.609
16.5768     27.224   -30.005
16.8179     27.701   -30.407
17.0626     28.179   -30.815
17.3107     28.656   -31.229
17.5625     29.134   -31.649
17.8180     29.612   -32.076
18.0771     30.090   -32.509
18.3401     30.568   -32.949
18.6068     31.046   -33.396
18.8775     31.525   -33.850
19.1521     32.003   -34.310
19.4306     32.483   -34.778
19.7133     32.961   -35.266
20.0000     33.437   -35.792
20.2909     33.906   -36.352
20.5860     34.364   -36.906
20.8855     34.810   -37.316
21.1893     35.245   -37.532
21.4975     35.677   -37.671
21.8102     36.119   -37.847
22.1274     36.577   -38.125
22.4492     37.053   -38.498
22.7758     37.545   -38.904
23.1071     38.047   -39.356
23.4432     38.555   -39.842
23.7841     39.063   -40.461
24.1301     39.570   -41.373
24.4811     40.071   -42.464
24.8372     40.561   -43.539
25.1984     41.041   -44.504
25.5649     41.513   -45.293
25.9368     41.981   -45.992
26.3141     42.450   -46.716
26.6968     42.922   -47.523
27.0851     43.397   -48.449
27.4791     43.875   -49.466
27.8788     44.354   -50.497
28.2843     44.833   -51.465
28.6957     45.311   -52.385
29.1131     45.789   -53.317
29.5365     46.266   -54.292
29.9661     46.741   -55.356
30.4020     47.216   -56.433
30.8442     47.690   -57.492
31.2929     48.165   -58.572
31.7480     48.639   -59.707
32.2098     49.110   -60.967
32.6783     49.576   -62.351
33.1536     50.033   -63.578
33.6359     50.487   -64.463
34.1251     50.949   -64.947
34.6215     51.438   -65.389
35.1250     51.957   -66.100
35.6359     52.496   -67.221
36.1543     53.039   -68.569
36.6802     53.575   -70.000
37.2137     54.102   -71.387
37.7550     54.620   -72.720
38.3041     55.138   -74.133
38.8613     55.658   -75.818
39.4265     56.177   -77.584
40.0000     56.693   -79.247
40.5818     57.204   -80.692
41.1721     57.719   -82.075
41.7710     58.238   -83.578
42.3785     58.760   -85.343
42.9949     59.280   -87.370
43.6203     59.793   -89.566
44.2548     60.295   -91.794
44.8985     60.784   -93.912
45.5515     61.264   -95.845
46.2141     61.740   -97.642
46.8863     62.218   -99.403
47.5683     62.702  -101.212
48.2602     63.193  -103.133
48.9621     63.691  -105.173
49.6743     64.192  -107.301
50.3968     64.695  -109.502
51.1299     65.199  -111.756
51.8736     65.701  -114.056
52.6281     66.201  -116.417
53.3936     66.698  -118.861
54.1702     67.189  -121.401
54.9581     67.673  -124.022
55.7575     68.149  -126.715
56.5685     68.617  -129.485
57.3914     69.078  -132.304
58.2261     69.532  -135.157
59.0730     69.979  -138.067
59.9323     70.418  -141.063
60.8040     70.846  -144.146
61.6884     71.264  -147.302
62.5857     71.671  -150.530
63.4960     72.067  -153.830
64.4196     72.445  -157.191
65.3566     72.804  -160.603
66.3073     73.144  -164.058
67.2717     73.469  -167.541
68.2502     73.783  -171.034
69.2429     74.087  -174.546
70.2501     74.380  -178.095
71.2719     74.654   178.307
72.3086     74.904   174.688
73.3603     75.129   171.096
74.4274     75.332   167.552
75.5099     75.518   164.064
76.6083     75.689   160.622
77.7226     75.848   157.206
78.8531     75.992   153.824
80.0000     76.121   150.479
81.1636     76.236   147.195
82.3442     76.339   143.998
83.5419     76.432   140.871
84.7570     76.514   137.805
85.9899     76.587   134.806
87.2406     76.650   131.876
88.5096     76.705   129.013
89.7970     76.754   126.222
91.1031     76.798   123.496
92.4282     76.839   120.825
93.7726     76.877   118.210
95.1366     76.910   115.650
96.5204     76.940   113.135
97.9243     76.964   110.661
99.3486     76.983   108.237
100.794     76.998   105.864
102.260     77.008   103.546
103.747     77.015   101.295
105.256     77.022    99.111
106.787     77.032    96.966
108.340     77.043    94.829
109.916     77.050    92.705
111.515     77.051    90.610
113.137     77.045    88.559
114.783     77.036    86.574
116.452     77.029    84.645
118.146     77.025    82.733
119.865     77.021    80.821
121.608     77.012    78.910
123.377     76.994    77.027
125.171     76.969    75.211
126.992     76.940    73.469
128.839     76.913    71.793
130.713     76.889    70.170
132.615     76.869    68.577
134.543     76.851    66.999
136.500     76.834    65.447
138.486     76.818    63.923
140.500     76.805    62.417
142.544     76.795    60.926
144.617     76.787    59.441
146.721     76.781    57.949
148.855     76.772    56.447
151.020     76.761    54.941
153.217     76.744    53.440
155.445     76.721    51.963
157.706     76.694    50.518
160.000     76.662    49.112
162.327     76.628    47.769
164.688     76.595    46.496
167.084     76.569    45.277
169.514     76.553    44.085
171.980     76.545    42.883
174.481     76.541    41.635
177.019     76.534    40.344
179.594     76.519    39.033
182.206     76.495    37.744
184.856     76.467    36.513
187.545     76.443    35.331
190.273     76.423    34.174
193.041     76.407    33.029
195.849     76.395    31.878
198.697     76.384    30.701
201.587     76.370    29.486
204.520     76.349    28.235
207.494     76.316    26.990
210.512     76.271    25.811
213.574     76.219    24.747
216.681     76.171    23.806
219.833     76.137    22.939
223.030     76.120    22.083
226.274     76.117    21.161
229.565     76.119    20.148
232.905     76.117    19.087
236.292     76.114    18.005
239.729     76.106    16.898
243.216     76.091    15.781
246.754     76.068    14.680
250.343     76.038    13.624
253.984     76.006    12.644
257.678     75.981    11.760
261.426     75.979    10.877
265.229     75.992     9.845
269.087     75.995     8.631
273.001     75.976     7.327
276.972     75.931     6.057
281.000     75.870     4.969
285.088     75.823     4.101
289.234     75.810     3.278
293.441     75.824     2.303
297.709     75.839     1.105
302.040     75.830    -0.252
306.433     75.795    -1.624
310.890     75.741    -2.925
315.412     75.676    -4.147
320.000     75.610    -5.322
324.655     75.539    -6.511
329.377     75.458    -7.700
334.168     75.373    -8.841
339.028     75.280    -9.947
343.959     75.174   -10.998
348.962     75.061   -11.931
354.038     74.942   -12.725
359.188     74.825   -13.361
364.412     74.728   -13.862
369.713     74.661   -14.343
375.090     74.616   -14.923
380.546     74.577   -15.655
386.081     74.531   -16.515
391.697     74.466   -17.435
397.394     74.378   -18.392
403.175     74.255   -19.292
409.039     74.101   -19.928
414.989     73.947   -20.196
421.025     73.823   -20.098
427.149     73.762   -19.744
433.362     73.782   -19.430
439.665     73.861   -19.482
446.060     73.957   -20.016
452.548     74.033   -20.941
459.131     74.071   -22.110
465.809     74.066   -23.351
472.584     74.029   -24.528
479.458     73.981   -25.634
486.432     73.922   -26.743
493.507     73.835   -27.851
500.686     73.716   -28.831
507.968     73.572   -29.548
515.357     73.411   -29.868
522.853     73.277   -29.687
530.458     73.227   -29.181
538.174     73.275   -28.671
546.002     73.421   -28.437
553.943     73.618   -28.822
562.001     73.783   -29.882
570.175     73.870   -31.301
578.469     73.872   -32.809
586.883     73.806   -34.131
595.419     73.713   -35.098
604.080     73.640   -35.822
612.866     73.606   -36.459
621.780     73.593   -37.159
630.824     73.588   -38.010
640.000     73.579   -38.879
649.309     73.578   -39.646
658.753     73.615   -40.418
668.335     73.685   -41.311
678.056     73.783   -42.447
687.919     73.883   -43.940
697.925     73.953   -45.753
708.077     73.989   -47.938
718.376     73.922   -50.567
728.825     73.687   -52.916
739.426     73.408   -54.255
750.181     73.198   -55.033
761.093     73.050   -55.803
772.163     72.921   -56.527
783.394     72.812   -57.190
794.789     72.725   -57.848
806.349     72.663   -58.414
818.078     72.647   -59.095
829.977     72.644   -60.142
842.050     72.621   -61.521
854.298     72.584   -63.187
866.724     72.522   -65.329
879.330     72.386   -67.964
892.120     72.128   -70.569
905.097     71.748   -72.547
918.262     71.288   -73.300
931.618     70.826   -72.729
945.169     70.466   -71.347
958.917     70.301   -69.731
972.864     70.268   -68.800
987.015     70.225   -68.598
1001.37     70.150   -68.276
1015.94     70.069   -67.725
1030.71     69.998   -66.903
1045.71     70.007   -65.752
1060.92     70.149   -65.000
1076.35     70.380   -65.291
1092.00     70.594   -66.495
1107.89     70.748   -68.356
1124.00     70.815   -70.754
1140.35     70.734   -73.152
1156.94     70.520   -74.941
1173.77     70.243   -75.835
1190.84     69.965   -75.750
1208.16     69.788   -74.886
1225.73     69.807   -73.693
1243.56     69.999   -72.932
1261.65     70.254   -73.227
1280.00     70.460   -74.316
1298.62     70.568   -75.631
1317.51     70.624   -76.945
1336.67     70.691   -78.149
1356.11     70.793   -79.460
1375.84     70.919   -81.280
1395.85     71.005   -83.656
1416.15     70.968   -86.242
1436.75     70.823   -88.298
1457.65     70.656   -89.568
1478.85     70.524   -90.445
1500.36     70.442   -91.091
1522.19     70.389   -91.889
1544.33     70.318   -93.075
1566.79     70.203   -94.100
1589.58     70.065   -94.544
1612.70     69.999   -94.430
1636.16     70.098   -94.142
1659.95     70.322   -94.463
1684.10     70.567   -95.743
1708.60     70.781   -97.735
1733.45     70.932  -100.086
1758.66     71.014  -102.337
1784.24     71.054  -104.318
1810.19     71.046  -106.101
1836.52     71.011  -107.456
1863.24     71.046  -108.479
1890.34     71.202  -109.849
1917.83     71.450  -111.984
1945.73     71.730  -114.829
1974.03     71.993  -118.097
2002.74     72.216  -121.495
2031.87     72.391  -125.158
2061.43     72.499  -129.200
2091.41     72.539  -133.368
2121.83     72.515  -137.690
2152.69     72.423  -142.119
2184.01     72.291  -146.376
2215.77     72.160  -150.675
2248.00     72.036  -155.312
2280.70     71.895  -160.270
2313.87     71.724  -165.451
2347.53     71.513  -170.751
2381.68     71.223  -175.779
2416.32     70.888  -179.958
2451.46     70.569   176.523
2487.12     70.229   173.159
2523.30     69.862   170.034
2560.00     69.465   167.124
2597.24     69.023   164.439
2635.01     68.569   162.505
2673.34     68.185   161.358
2712.23     68.007   160.170
2751.68     68.073   157.744
2791.70     68.281   152.975
2832.31     68.483   145.581
2873.50     68.507   136.226
2915.30     68.301   125.929
2957.70     67.919   115.583
3000.72     67.417   105.401
3044.37     66.797    94.884
3088.65     65.962    83.515
3133.58     64.887    71.656
3179.16     63.731    58.930
3225.40     62.352    45.546
3272.31     60.887    33.022
3319.91     59.569    21.564
3368.20     58.513    10.586
3417.19     57.786    -0.928
3466.89     57.445   -14.083
3517.32     57.360   -29.406
3568.48     57.260   -45.670
3620.39     57.059   -60.429
3673.05     56.851   -72.611
3726.47     56.792   -82.467
3780.67     57.065   -90.177
3835.67     57.837   -96.623
3891.46     59.016  -103.755
3948.06     60.218  -112.595
4005.49     61.159  -121.970
4063.75     61.949  -130.536
4122.86     62.697  -138.843
4182.82     63.382  -147.482
4243.66     63.991  -156.341
4305.39     64.558  -165.691
4368.01     65.058  -175.980
4431.55     65.374   173.133
4496.01     65.496   162.554
4561.40     65.550   152.302
4627.75     65.558   141.838
4695.06     65.496   131.496
4763.35     65.448   121.613
4832.64     65.464   111.767
4902.93     65.477   101.651
4974.24     65.380    91.281
5046.60     65.172    81.556
5120.00     65.021    72.008
5194.47     64.936    61.828
5270.03     64.847    50.441
5346.68     64.630    38.014
5424.45     64.199    25.374
5503.35     63.552    13.583
5583.40     62.850     3.693
5664.61     62.276    -4.720
5747.01     61.902   -12.637
5830.60     61.772   -20.823
5915.41     61.792   -30.177
6001.45     61.872   -40.748
6088.74     61.989   -52.717
6177.30     62.055   -66.027
6267.15     62.078   -80.133
6358.31     62.012   -94.972
6450.80     61.805  -109.543
6544.62     61.504  -122.868
6639.82     61.109  -134.619
6736.40     60.736  -144.849
6834.38     60.499  -154.711
6933.79     60.390  -165.196
7034.64     60.449  -176.834
7136.96     60.657   169.962
7240.77     60.880   155.513
7346.09     60.999   140.731
7452.94     61.062   126.054
7561.35     61.092   111.466
7671.33     61.039    97.293
7782.91     61.013    83.433
7896.12     61.081    68.974
8010.97     61.149    53.223
8127.49     61.130    36.466
8245.71     61.052    19.050
8365.65     60.911     0.768
8487.33     60.653   -18.036
8610.78     60.343   -37.246
8736.03     60.016   -57.236
8863.09     59.664   -77.409
8992.01     59.359   -97.321
9122.80     59.071  -116.782
9255.50     58.867  -134.626
9390.12     58.822  -151.231
9526.70     58.777  -167.605
9665.27     58.687   176.753
9805.86     58.567   160.894
9948.49     58.425   143.782
10093.2     58.234   125.655
10240.0     57.985   106.236
10388.9     57.849    86.308
10540.1     57.759    66.462
10693.4     57.525    46.690
10848.9     57.330    28.029
11006.7     57.249     9.861
11166.8     57.166    -9.039
11329.2     57.177   -28.187
11494.0     57.382   -48.077
11661.2     57.648   -69.770
11830.8     57.886   -92.916
12002.9     58.103  -117.579
12177.5     58.181  -143.961
12354.6     58.090  -170.943
12534.3     57.929   161.794
12716.6     57.647   134.019
12901.6     57.221   106.398
13089.2     56.701    79.094
13279.6     56.034    51.980
13472.8     55.209    25.220
13668.8     54.308    -1.141
13867.6     53.434   -27.944
14069.3     52.630   -55.816
14273.9     51.904   -84.335
14481.5     51.252  -112.995
14692.2     50.560  -140.544
14905.9     49.747  -165.649
15122.7     48.839   172.444
15342.7     47.859   153.209
15565.8     46.974   134.674
15792.2     46.558   114.740
16021.9     46.709    91.095
16255.0     47.206    62.476
16491.4     47.799    29.347
16731.3     48.158    -7.165
16974.7     48.079   -44.923
17221.6     47.466   -81.012
17472.1     46.300  -111.985
17726.2     44.854  -136.120
17984.0     43.577  -155.090
18245.6     43.174  -171.781
18511.0     43.988   169.386
18780.2     45.519   142.816
19053.4     47.123   106.258
19330.5     48.230    61.064
19611.7     48.649     9.672
19897.0     48.412   -46.076
20186.4     47.474  -106.643
20480.0     45.851  -173.660
20777.9     43.737   110.941
21080.1     41.567    28.120
21386.7     39.971   -56.912
21697.8     39.398  -139.910
22013.4     39.821   142.846
22333.6     40.465    75.476
22658.4     40.582    18.439
22988.0     40.097   -30.199
23322.4     39.159   -73.590
23661.6     37.760  -115.902
24005.8     36.269  -159.413
24355.0     35.269   154.956
24709.2     34.808   108.585
25068.6     34.878    64.438
25433.2     35.478    23.428
25803.2     36.450   -14.858
26178.5     37.604   -53.144
26559.3     38.709   -95.094
26945.6     39.697  -141.247
27337.5     40.671   168.979
27735.2     41.629   115.909
28138.6     42.461    60.256
28547.9     42.992     2.037
28963.1     43.055   -58.871
29384.4     42.582  -122.592
29811.8     41.655   169.713
30245.4     40.595    97.853
30685.3     39.915    23.079
31131.7     39.890   -54.100
31584.5     40.419  -133.866
32043.9     41.257   143.881
32510.0     42.067    60.688
32982.8     42.691   -22.121
33462.6     43.171  -104.641
33949.3     43.570   173.958
34443.1     43.974    94.117
34944.1     44.348    15.356
35452.4     44.664   -62.447
35968.0     44.938  -140.526
36491.2     45.043   139.962
37022.0     44.942    59.210
37560.5     44.673   -22.414
38106.8     44.395   -96.389
38661.1     43.971  -161.944
39223.4     43.578   151.736
39793.9     43.360   118.321
