Freq[Hz]     dBSPL  Phase[Deg]
5.00000    -11.405   -14.322
5.07273    -11.050   -14.407
5.14651    -10.664   -14.498
5.22137    -10.232   -14.597
5.29732     -9.782   -14.701
5.37437     -9.311   -14.809
5.45254     -8.841   -14.918
5.53185     -8.370   -15.029
5.61231     -7.899   -15.142
5.69394     -7.429   -15.257
5.77676     -6.958   -15.373
5.86079     -6.487   -15.491
5.94604     -6.016   -15.610
6.03252     -5.546   -15.731
6.12027     -5.075   -15.854
6.20929     -4.604   -15.979
6.29961     -4.133   -16.106
6.39124     -3.663   -16.234
6.48420     -3.192   -16.365
6.57851     -2.721   -16.497
6.67420     -2.250   -16.631
6.77128     -1.779   -16.768
6.86977     -1.308   -16.906
6.96969     -0.837   -17.046
7.07107     -0.366   -17.188
7.17392      0.105   -17.332
7.27827      0.576   -17.479
7.38413      1.047   -17.627
7.49154      1.518   -17.778
7.60050      1.989   -17.931
7.71105      2.460   -18.086
7.82321      2.931   -18.244
7.93701      3.402   -18.403
8.05245      3.873   -18.566
8.16958      4.345   -18.730
8.28841      4.816   -18.897
8.40896      5.287   -19.066
8.53128      5.759   -19.238
8.65537      6.230   -19.412
8.78126      6.701   -19.589
8.90899      7.173   -19.769
9.03857      7.644   -19.951
9.17004      8.116   -20.135
9.30342      8.587   -20.323
9.43874      9.059   -20.513
9.57603      9.530   -20.706
9.71532     10.002   -20.902
9.85663     10.474   -21.101
10.0000     10.945   -21.302
10.1455     11.417   -21.507
10.2930     11.889   -21.714
10.4427     12.361   -21.925
10.5946     12.833   -22.139
10.7487     13.305   -22.356
10.9051     13.777   -22.576
11.0637     14.249   -22.799
11.2246     14.721   -23.026
11.3879     15.193   -23.256
11.5535     15.666   -23.489
11.7216     16.138   -23.726
11.8921     16.611   -23.966
12.0650     17.083   -24.210
12.2405     17.556   -24.457
12.4186     18.028   -24.708
12.5992     18.501   -24.963
12.7825     18.974   -25.222
12.9684     19.447   -25.484
13.1570     19.920   -25.751
13.3484     20.393   -26.021
13.5426     20.866   -26.295
13.7395     21.339   -26.573
13.9394     21.812   -26.856
14.1421     22.286   -27.143
14.3478     22.759   -27.434
14.5565     23.233   -27.729
14.7683     23.707   -28.029
14.9831     24.181   -28.333
15.2010     24.655   -28.642
15.4221     25.129   -28.955
15.6464     25.603   -29.274
15.8740     26.078   -29.597
16.1049     26.552   -29.924
16.3392     27.027   -30.257
16.5768     27.502   -30.595
16.8179     27.977   -30.938
17.0626     28.452   -31.286
17.3107     28.927   -31.640
17.5625     29.403   -31.998
17.8180     29.878   -32.363
18.0771     30.354   -32.733
18.3401     30.830   -33.108
18.6068     31.307   -33.490
18.8775     31.783   -33.877
19.1521     32.260   -34.271
19.4306     32.737   -34.670
19.7133     33.212   -35.095
20.0000     33.682   -35.570
20.2909     34.141   -36.108
20.5860     34.584   -36.674
20.8855     35.012   -37.109
21.1893     35.428   -37.333
21.4975     35.840   -37.422
21.8102     36.262   -37.449
22.1274     36.703   -37.494
22.4492     37.170   -37.619
22.7758     37.665   -37.818
23.1071     38.179   -38.158
23.4432     38.705   -38.648
23.7841     39.230   -39.339
24.1301     39.743   -40.328
24.4811     40.242   -41.461
24.8372     40.724   -42.513
25.1984     41.197   -43.402
25.5649     41.668   -44.086
25.9368     42.139   -44.683
26.3141     42.616   -45.334
26.6968     43.096   -46.107
27.0851     43.577   -47.039
27.4791     44.057   -48.077
27.8788     44.534   -49.122
28.2843     45.009   -50.080
28.6957     45.483   -50.957
29.1131     45.959   -51.823
29.5365     46.439   -52.732
29.9661     46.921   -53.749
30.4020     47.403   -54.819
30.8442     47.879   -55.903
31.2929     48.347   -57.015
31.7480     48.807   -58.141
32.2098     49.263   -59.319
32.6783     49.721   -60.540
33.1536     50.189   -61.592
33.6359     50.670   -62.371
34.1251     51.163   -62.880
34.6215     51.668   -63.449
35.1250     52.182   -64.303
35.6359     52.703   -65.493
36.1543     53.228   -66.810
36.6802     53.757   -68.148
37.2137     54.285   -69.449
37.7550     54.809   -70.740
38.3041     55.327   -72.143
38.8613     55.842   -73.803
39.4265     56.355   -75.508
40.0000     56.868   -77.082
40.5818     57.385   -78.452
41.1721     57.906   -79.798
41.7710     58.428   -81.290
42.3785     58.950   -83.049
42.9949     59.467   -85.060
43.6203     59.977   -87.220
44.2548     60.476   -89.396
44.8985     60.966   -91.462
45.5515     61.446   -93.349
46.2141     61.924   -95.104
46.8863     62.403   -96.825
47.5683     62.888   -98.594
48.2602     63.380  -100.471
48.9621     63.877  -102.467
49.6743     64.380  -104.559
50.3968     64.885  -106.734
51.1299     65.389  -108.972
51.8736     65.890  -111.257
52.6281     66.387  -113.591
53.3936     66.877  -115.987
54.1702     67.363  -118.453
54.9581     67.845  -120.987
55.7575     68.323  -123.599
56.5685     68.796  -126.304
57.3914     69.264  -129.077
58.2261     69.723  -131.902
59.0730     70.173  -134.792
59.9323     70.612  -137.767
60.8040     71.038  -140.822
61.6884     71.452  -143.941
62.5857     71.855  -147.118
63.4960     72.246  -150.351
64.4196     72.622  -153.632
65.3566     72.981  -156.959
66.3073     73.323  -160.335
67.2717     73.650  -163.750
68.2502     73.966  -167.185
69.2429     74.272  -170.643
70.2501     74.565  -174.139
71.2719     74.840  -177.682
72.3086     75.091   178.754
73.3603     75.317   175.222
74.4274     75.521   171.742
75.5099     75.708   168.323
76.6083     75.881   164.953
77.7226     76.042   161.610
78.8531     76.189   158.295
80.0000     76.322   155.013
81.1636     76.440   151.792
82.3442     76.546   148.656
83.5419     76.642   145.586
84.7570     76.726   142.573
85.9899     76.800   139.622
87.2406     76.863   136.738
88.5096     76.917   133.931
89.7970     76.964   131.209
91.1031     77.007   128.565
92.4282     77.049   125.978
93.7726     77.088   123.446
95.1366     77.122   120.966
96.5204     77.152   118.530
97.9243     77.177   116.142
99.3486     77.198   113.813
100.794     77.214   111.538
102.260     77.228   109.316
103.747     77.239   107.152
105.256     77.250   105.045
106.787     77.261   102.973
108.340     77.272   100.916
109.916     77.280    98.887
111.515     77.283    96.892
113.137     77.280    94.942
114.783     77.275    93.056
116.452     77.271    91.220
118.146     77.269    89.400
119.865     77.265    87.592
121.608     77.256    85.802
123.377     77.240    84.053
125.171     77.220    82.379
126.992     77.201    80.778
128.839     77.186    79.227
130.713     77.177    77.697
132.615     77.169    76.156
134.543     77.159    74.603
136.500     77.143    73.064
138.486     77.122    71.567
140.500     77.099    70.130
142.544     77.076    68.761
144.617     77.059    67.452
146.721     77.049    66.175
148.855     77.046    64.899
151.020     77.046    63.604
153.217     77.046    62.285
155.445     77.042    60.952
157.706     77.034    59.614
160.000     77.019    58.292
162.327     77.000    57.012
164.688     76.980    55.774
167.084     76.961    54.573
169.514     76.944    53.406
171.980     76.930    52.254
174.481     76.915    51.109
177.019     76.899    49.985
179.594     76.885    48.883
182.206     76.871    47.792
184.856     76.860    46.706
187.545     76.848    45.611
190.273     76.833    44.512
193.041     76.814    43.435
195.849     76.792    42.393
198.697     76.771    41.386
201.587     76.751    40.390
204.520     76.729    39.391
207.494     76.701    38.422
210.512     76.669    37.525
213.574     76.640    36.731
216.681     76.623    36.019
219.833     76.626    35.321
223.030     76.645    34.540
226.274     76.668    33.599
229.565     76.679    32.531
232.905     76.672    31.433
236.292     76.651    30.373
239.729     76.622    29.396
243.216     76.590    28.503
246.754     76.562    27.660
250.343     76.533    26.837
253.984     76.501    26.057
257.678     76.470    25.376
261.426     76.454    24.771
265.229     76.460    24.147
269.087     76.481    23.399
273.001     76.500    22.475
276.972     76.497    21.444
281.000     76.469    20.451
285.088     76.427    19.603
289.234     76.389    18.901
293.441     76.371    18.257
297.709     76.370    17.548
302.040     76.370    16.743
306.433     76.360    15.904
310.890     76.342    15.097
315.412     76.319    14.377
320.000     76.308    13.725
324.655     76.314    13.018
329.377     76.325    12.186
334.168     76.332    11.232
339.028     76.323    10.172
343.959     76.287     9.102
348.962     76.235     8.148
354.038     76.180     7.278
359.188     76.119     6.453
364.412     76.057     5.718
369.713     76.003     4.992
375.090     75.945     4.242
380.546     75.880     3.574
386.081     75.822     2.958
391.697     75.767     2.345
397.394     75.703     1.723
403.175     75.624     1.115
409.039     75.529     0.662
414.989     75.441     0.431
421.025     75.380     0.363
427.149     75.355     0.360
433.362     75.365     0.259
439.665     75.388    -0.083
446.060     75.396    -0.647
452.548     75.378    -1.276
459.131     75.339    -1.863
465.809     75.287    -2.343
472.584     75.238    -2.618
479.458     75.214    -2.742
486.432     75.219    -2.860
493.507     75.245    -3.012
500.686     75.299    -3.252
507.968     75.369    -3.755
515.357     75.420    -4.522
522.853     75.435    -5.377
530.458     75.424    -6.215
538.174     75.390    -6.956
546.002     75.359    -7.629
553.943     75.334    -8.359
562.001     75.298    -9.083
570.175     75.254    -9.775
578.469     75.192   -10.421
586.883     75.119   -10.834
595.419     75.058   -11.035
604.080     75.022   -11.188
612.866     75.014   -11.380
621.780     75.007   -11.671
630.824     74.988   -11.962
640.000     74.978   -12.166
649.309     74.988   -12.350
658.753     75.028   -12.669
668.335     75.083   -13.222
678.056     75.132   -13.966
687.919     75.165   -14.811
697.925     75.195   -15.649
708.077     75.245   -16.659
718.376     75.247   -18.269
728.825     75.096   -19.943
739.426     74.865   -20.812
750.181     74.661   -21.005
761.093     74.506   -20.843
772.163     74.418   -20.398
783.394     74.419   -19.966
794.789     74.481   -19.997
806.349     74.534   -20.552
818.078     74.549   -21.442
829.977     74.514   -22.431
842.050     74.427   -23.171
854.298     74.333   -23.568
866.724     74.254   -23.842
879.330     74.171   -24.055
892.120     74.098   -24.113
905.097     74.048   -23.966
918.262     74.040   -23.669
931.618     74.091   -23.366
945.169     74.186   -23.168
958.917     74.321   -23.387
972.864     74.442   -24.183
987.015     74.511   -25.122
1001.37     74.557   -26.019
1015.94     74.578   -26.966
1030.71     74.582   -27.871
1045.71     74.579   -28.928
1060.92     74.523   -30.304
1076.35     74.373   -31.672
1092.00     74.132   -32.457
1107.89     73.880   -32.277
1124.00     73.725   -31.222
1140.35     73.734   -29.743
1156.94     73.909   -28.600
1173.77     74.161   -28.461
1190.84     74.367   -29.339
1208.16     74.450   -30.779
1225.73     74.416   -32.119
1243.56     74.332   -32.895
1261.65     74.266   -33.143
1280.00     74.268   -33.023
1298.62     74.366   -32.925
1317.51     74.535   -33.436
1336.67     74.702   -34.661
1356.11     74.817   -36.477
1375.84     74.847   -38.790
1395.85     74.765   -41.180
1416.15     74.596   -43.265
1436.75     74.391   -45.016
1457.65     74.185   -46.504
1478.85     73.990   -47.978
1500.36     73.791   -49.626
1522.19     73.576   -51.467
1544.33     73.307   -53.631
1566.79     72.932   -55.971
1589.58     72.437   -57.945
1612.70     71.879   -59.108
1636.16     71.365   -59.364
1659.95     70.972   -59.180
1684.10     70.685   -59.232
1708.60     70.453   -59.934
1733.45     70.223   -61.476
1758.66     69.936   -63.943
1784.24     69.512   -67.121
1810.19     68.957   -70.383
1836.52     68.353   -73.301
1863.24     67.763   -76.082
1890.34     67.270   -79.352
1917.83     66.905   -83.853
1945.73     66.577   -89.619
1974.03     66.242   -96.124
2002.74     65.928  -102.787
2031.87     65.669  -108.907
2061.43     65.573  -114.663
2091.41     65.721  -120.535
2121.83     66.017  -126.412
2152.69     66.372  -132.181
2184.01     66.724  -137.402
2215.77     67.021  -141.688
2248.00     67.312  -144.952
2280.70     67.675  -147.334
2313.87     68.135  -149.240
2347.53     68.671  -150.666
2381.68     69.251  -151.561
2416.32     69.853  -152.162
2451.46     70.471  -152.560
2487.12     71.091  -153.060
2523.30     71.672  -153.954
2560.00     72.183  -154.845
2597.24     72.628  -155.325
2635.01     73.012  -155.436
2673.34     73.341  -155.098
2712.23     73.660  -154.348
2751.68     74.017  -153.692
2791.70     74.389  -153.284
2832.31     74.759  -152.791
2873.50     75.141  -152.156
2915.30     75.501  -151.539
2957.70     75.781  -150.864
3000.72     75.984  -150.088
3044.37     76.101  -149.342
3088.65     76.099  -148.480
3133.58     76.013  -146.941
3179.16     75.966  -144.876
3225.40     75.895  -142.803
3272.31     75.789  -140.414
3319.91     75.667  -137.691
3368.20     75.545  -134.688
3417.19     75.434  -131.595
3466.89     75.298  -128.593
3517.32     75.098  -125.538
3568.48     74.824  -122.312
3620.39     74.446  -118.768
3673.05     73.972  -114.531
3726.47     73.462  -109.519
3780.67     72.954  -103.894
3835.67     72.462   -97.849
3891.46     71.974   -91.638
3948.06     71.428   -85.203
4005.49     70.773   -78.113
4063.75     69.978   -69.768
4122.86     69.064   -59.325
4182.82     68.198   -45.959
4243.66     67.676   -29.714
4305.39     67.778   -12.333
4368.01     68.481     3.313
4431.55     69.430    15.825
4496.01     70.325    25.656
4561.40     71.031    33.776
4627.75     71.521    41.315
4695.06     71.852    49.098
4763.35     72.116    57.414
4832.64     72.408    66.219
4902.93     72.782    74.835
4974.24     73.123    82.610
5046.60     73.383    90.623
5120.00     73.669    98.670
5194.47     73.931   106.301
5270.03     74.112   113.604
5346.68     74.172   120.813
5424.45     74.102   128.178
5503.35     73.906   135.876
5583.40     73.594   144.117
5664.61     73.181   153.191
5747.01     72.699   163.379
5830.60     72.197   174.979
5915.41     71.758  -171.922
6001.45     71.472  -157.637
6088.74     71.391  -142.628
6177.30     71.532  -127.468
6267.15     71.868  -112.823
6358.31     72.312   -99.141
6450.80     72.774   -86.603
6544.62     73.180   -75.247
6639.82     73.449   -64.926
6736.40     73.522   -55.147
6834.38     73.377   -45.138
6933.79     73.041   -34.090
7034.64     72.592   -21.551
7136.96     72.111    -7.595
7240.77     71.675     7.505
7346.09     71.337    23.264
7452.94     71.076    39.173
7561.35     70.834    55.162
7671.33     70.571    71.572
7782.91     70.310    88.965
7896.12     70.120   107.562
8010.97     70.045   127.090
8127.49     70.117   147.271
8245.71     70.368   167.564
8365.65     70.776  -172.879
8487.33     71.263  -154.491
8610.78     71.751  -137.224
8736.03     72.187  -120.990
8863.09     72.508  -105.545
8992.01     72.649   -90.397
9122.80     72.605   -75.043
9255.50     72.403   -59.052
9390.12     72.074   -42.041
9526.70     71.686   -23.664
9665.27     71.346    -3.893
9805.86     71.144    16.836
9948.49     71.106    37.818
10093.2     71.156    58.317
10240.0     71.172    78.119
10388.9     71.082    97.608
10540.1     70.856   117.262
10693.4     70.496   137.627
10848.9     70.046   159.091
11006.7     69.566  -178.258
11166.8     69.115  -154.484
11329.2     68.732  -129.833
11494.0     68.454  -104.552
11661.2     68.296   -79.107
11830.8     68.172   -53.851
12002.9     67.990   -28.365
12177.5     67.745    -2.144
12354.6     67.473    25.138
12534.3     67.280    53.512
12716.6     67.276    82.264
12901.6     67.440   110.511
13089.2     67.642   137.764
13279.6     67.745   164.213
13472.8     67.683  -169.386
13668.8     67.456  -142.253
13867.6     67.146  -113.930
14069.3     66.842   -84.534
14273.9     66.559   -54.276
14481.5     66.312   -23.278
14692.2     66.115     8.227
14905.9     65.963    40.211
15122.7     65.882    72.424
15342.7     65.840   104.459
15565.8     65.751   136.376
15792.2     65.559   168.461
16021.9     65.252  -158.841
16255.0     64.881  -125.113
16491.4     64.500   -90.238
16731.3     64.145   -54.264
16974.7     63.845   -17.386
17221.6     63.586    20.039
17472.1     63.301    57.746
17726.2     62.909    95.938
17984.0     62.381   135.371
18245.6     61.825   176.880
18511.0     61.429  -139.575
18780.2     61.364   -94.835
19053.4     61.699   -49.935
19330.5     62.319    -6.219
19611.7     63.000    35.420
19897.0     63.515    75.292
20186.4     63.731   114.557
20480.0     63.658   154.520
20777.9     63.371  -163.866
21080.1     62.975  -120.245
21386.7     62.614   -74.924
21697.8     62.360   -28.539
22013.4     62.187    18.320
22333.6     62.045    65.398
22658.4     61.880   112.824
22988.0     61.641   160.832
23322.4     61.338  -150.331
23661.6     60.996  -100.637
24005.8     60.612   -50.132
24355.0     60.164     1.499
24709.2     59.668    54.622
25068.6     59.201   109.306
25433.2     58.815   165.217
25803.2     58.472  -138.124
26178.5     58.135   -80.787
26559.3     57.804   -22.471
26945.6     57.476    37.138
27337.5     57.243    98.098
27735.2     57.204   159.953
28138.6     57.316  -138.033
28547.9     57.450   -76.347
28963.1     57.471   -14.771
29384.4     57.332    47.575
29811.8     57.100   111.632
30245.4     56.923   177.649
30685.3     56.960  -115.064
31131.7     57.233   -47.617
31584.5     57.589    19.146
32043.9     57.842    85.152
32510.0     57.874   151.252
32982.8     57.671  -141.213
33462.6     57.353   -71.300
33949.3     57.109     0.905
34443.1     57.073    74.529
34944.1     57.243   148.530
35452.4     57.502  -137.764
35968.0     57.738   -64.486
36491.2     57.830     8.630
37022.0     57.693    82.196
37560.5     57.363   157.142
38106.8     56.905  -133.354
38661.1     56.468   -67.467
39223.4     56.114   -15.859
39793.9     55.838    26.143
