Freq[Hz]     dBSPL  Phase[Deg]
5.00000    -12.386   -13.049
5.07273    -12.029   -13.142
5.14651    -11.639   -13.242
5.22137    -11.203   -13.354
5.29732    -10.749   -13.472
5.37437    -10.273   -13.596
5.45254     -9.797   -13.722
5.53185     -9.321   -13.850
5.61231     -8.846   -13.980
5.69394     -8.370   -14.112
5.77676     -7.894   -14.245
5.86079     -7.418   -14.381
5.94604     -6.942   -14.518
6.03252     -6.466   -14.658
6.12027     -5.991   -14.800
6.20929     -5.515   -14.943
6.29961     -5.039   -15.089
6.39124     -4.563   -15.237
6.48420     -4.087   -15.387
6.57851     -3.611   -15.539
6.67420     -3.135   -15.693
6.77128     -2.659   -15.850
6.86977     -2.183   -16.009
6.96969     -1.707   -16.170
7.07107     -1.231   -16.334
7.17392     -0.755   -16.500
7.27827     -0.278   -16.668
7.38413      0.198   -16.839
7.49154      0.674   -17.013
7.60050      1.150   -17.188
7.71105      1.626   -17.367
7.82321      2.103   -17.548
7.93701      2.579   -17.732
8.05245      3.055   -17.918
8.16958      3.531   -18.107
8.28841      4.008   -18.299
8.40896      4.484   -18.494
8.53128      4.961   -18.692
8.65537      5.437   -18.892
8.78126      5.914   -19.095
8.90899      6.390   -19.302
9.03857      6.867   -19.511
9.17004      7.343   -19.724
9.30342      7.820   -19.939
9.43874      8.297   -20.158
9.57603      8.773   -20.380
9.71532      9.250   -20.605
9.85663      9.727   -20.834
10.0000     10.204   -21.066
10.1455     10.681   -21.301
10.2930     11.158   -21.540
10.4427     11.635   -21.782
10.5946     12.112   -22.028
10.7487     12.589   -22.277
10.9051     13.066   -22.530
11.0637     13.543   -22.787
11.2246     14.021   -23.047
11.3879     14.498   -23.312
11.5535     14.975   -23.580
11.7216     15.453   -23.852
11.8921     15.931   -24.129
12.0650     16.408   -24.409
12.2405     16.886   -24.693
12.4186     17.364   -24.982
12.5992     17.841   -25.275
12.7825     18.319   -25.572
12.9684     18.797   -25.874
13.1570     19.275   -26.180
13.3484     19.754   -26.491
13.5426     20.232   -26.806
13.7395     20.710   -27.126
13.9394     21.189   -27.451
14.1421     21.667   -27.780
14.3478     22.146   -28.115
14.5565     22.625   -28.454
14.7683     23.104   -28.798
14.9831     23.583   -29.148
15.2010     24.062   -29.503
15.4221     24.541   -29.863
15.6464     25.021   -30.228
15.8740     25.500   -30.599
16.1049     25.980   -30.976
16.3392     26.460   -31.358
16.5768     26.940   -31.746
16.8179     27.420   -32.140
17.0626     27.900   -32.540
17.3107     28.380   -32.946
17.5625     28.861   -33.358
17.8180     29.342   -33.776
18.0771     29.823   -34.201
18.3401     30.304   -34.632
18.6068     30.786   -35.070
18.8775     31.267   -35.514
19.1521     31.749   -35.965
19.4306     32.231   -36.424
19.7133     32.713   -36.907
20.0000     33.194   -37.437
20.2909     33.670   -38.017
20.5860     34.137   -38.601
20.8855     34.586   -39.027
21.1893     35.015   -39.226
21.4975     35.435   -39.324
21.8102     35.859   -39.439
22.1274     36.299   -39.645
22.4492     36.770   -39.942
22.7758     37.270   -40.272
23.1071     37.792   -40.673
23.4432     38.323   -41.145
23.7841     38.853   -41.792
24.1301     39.371   -42.786
24.4811     39.875   -43.981
24.8372     40.362   -45.134
25.1984     40.837   -46.141
25.5649     41.305   -46.937
25.9368     41.773   -47.628
26.3141     42.246   -48.355
26.6968     42.723   -49.188
27.0851     43.202   -50.167
27.4791     43.682   -51.249
27.8788     44.160   -52.341
28.2843     44.635   -53.348
28.6957     45.110   -54.278
29.1131     45.586   -55.204
29.5365     46.065   -56.178
29.9661     46.548   -57.269
30.4020     47.028   -58.407
30.8442     47.504   -59.549
31.2929     47.975   -60.709
31.7480     48.441   -61.891
32.2098     48.902   -63.164
32.6783     49.363   -64.537
33.1536     49.820   -65.760
33.6359     50.277   -66.666
34.1251     50.740   -67.204
34.6215     51.227   -67.700
35.1250     51.742   -68.437
35.6359     52.275   -69.549
36.1543     52.816   -70.866
36.6802     53.358   -72.275
37.2137     53.893   -73.682
37.7550     54.420   -75.089
38.3041     54.942   -76.598
38.8613     55.464   -78.362
39.4265     55.979   -80.179
40.0000     56.489   -81.853
40.5818     56.997   -83.283
41.1721     57.509   -84.648
41.7710     58.030   -86.133
42.3785     58.559   -87.891
42.9949     59.090   -89.934
43.6203     59.615   -92.172
44.2548     60.130   -94.476
44.8985     60.627   -96.706
45.5515     61.108   -98.764
46.2141     61.580  -100.674
46.8863     62.051  -102.524
47.5683     62.528  -104.392
48.2602     63.013  -106.348
48.9621     63.506  -108.416
49.6743     64.006  -110.570
50.3968     64.510  -112.803
51.1299     65.015  -115.099
51.8736     65.519  -117.442
52.6281     66.020  -119.851
53.3936     66.517  -122.346
54.1702     67.008  -124.937
54.9581     67.493  -127.610
55.7575     67.970  -130.361
56.5685     68.440  -133.196
57.3914     68.901  -136.088
58.2261     69.354  -139.015
59.0730     69.799  -141.990
59.9323     70.236  -145.043
60.8040     70.663  -148.175
61.6884     71.079  -151.377
62.5857     71.486  -154.647
63.4960     71.881  -157.993
64.4196     72.261  -161.409
65.3566     72.620  -164.888
66.3073     72.960  -168.422
67.2717     73.282  -171.989
68.2502     73.589  -175.557
69.2429     73.888  -179.115
70.2501     74.178   177.323
71.2719     74.455   173.727
72.3086     74.710   170.101
73.3603     74.943   166.481
74.4274     75.154   162.878
75.5099     75.345   159.307
76.6083     75.521   155.768
77.7226     75.681   152.253
78.8531     75.826   148.775
80.0000     75.955   145.341
81.1636     76.068   141.981
82.3442     76.170   138.729
83.5419     76.264   135.559
84.7570     76.350   132.445
85.9899     76.430   129.384
87.2406     76.501   126.368
88.5096     76.563   123.398
89.7970     76.616   120.490
91.1031     76.663   117.649
92.4282     76.707   114.867
93.7726     76.746   112.142
95.1366     76.779   109.473
96.5204     76.808   106.854
97.9243     76.832   104.285
99.3486     76.851   101.773
100.794     76.868    99.316
102.260     76.882    96.904
103.747     76.894    94.542
105.256     76.902    92.233
106.787     76.910    89.969
108.340     76.918    87.735
109.916     76.923    85.535
111.515     76.924    83.375
113.137     76.922    81.263
114.783     76.921    79.214
116.452     76.924    77.206
118.146     76.933    75.192
119.865     76.943    73.152
121.608     76.947    71.086
123.377     76.938    69.022
125.171     76.917    67.023
126.992     76.889    65.114
128.839     76.863    63.286
130.713     76.843    61.514
132.615     76.827    59.757
134.543     76.813    57.996
136.500     76.797    56.248
138.486     76.777    54.532
140.500     76.755    52.863
142.544     76.734    51.250
144.617     76.717    49.693
146.721     76.708    48.165
148.855     76.706    46.634
151.020     76.709    45.074
153.217     76.710    43.475
155.445     76.706    41.852
157.706     76.694    40.234
160.000     76.674    38.651
162.327     76.651    37.141
164.688     76.633    35.704
167.084     76.624    34.299
169.514     76.625    32.886
171.980     76.632    31.428
174.481     76.636    29.906
177.019     76.632    28.351
179.594     76.618    26.812
182.206     76.595    25.329
184.856     76.573    23.922
187.545     76.558    22.567
190.273     76.552    21.220
193.041     76.550    19.862
195.849     76.553    18.489
198.697     76.559    17.084
201.587     76.566    15.621
204.520     76.569    14.091
207.494     76.560    12.518
210.512     76.538    10.943
213.574     76.502     9.420
216.681     76.456     7.974
219.833     76.403     6.610
223.030     76.352     5.352
226.274     76.310     4.187
229.565     76.282     3.072
232.905     76.271     2.004
236.292     76.283     0.942
239.729     76.317    -0.236
243.216     76.356    -1.605
246.754     76.382    -3.141
250.343     76.385    -4.771
253.984     76.362    -6.394
257.678     76.316    -7.904
261.426     76.267    -9.244
265.229     76.236   -10.475
269.087     76.225   -11.737
273.001     76.223   -13.094
276.972     76.215   -14.527
281.000     76.198   -15.963
285.088     76.176   -17.320
289.234     76.164   -18.622
293.441     76.169   -19.945
297.709     76.183   -21.390
302.040     76.187   -22.988
306.433     76.171   -24.612
310.890     76.141   -26.174
315.412     76.110   -27.667
320.000     76.090   -29.124
324.655     76.081   -30.676
329.377     76.070   -32.355
334.168     76.047   -34.103
339.028     76.012   -35.902
343.959     75.964   -37.728
348.962     75.899   -39.566
354.038     75.811   -41.399
359.188     75.697   -43.126
364.412     75.573   -44.672
369.713     75.458   -46.046
375.090     75.362   -47.341
380.546     75.282   -48.674
386.081     75.205   -50.045
391.697     75.122   -51.445
397.394     75.034   -52.870
403.175     74.941   -54.276
409.039     74.840   -55.698
414.989     74.724   -57.126
421.025     74.583   -58.393
427.149     74.439   -59.353
433.362     74.329   -60.032
439.665     74.276   -60.616
446.060     74.279   -61.366
452.548     74.305   -62.439
459.131     74.318   -63.775
465.809     74.317   -65.270
472.584     74.290   -66.867
479.458     74.225   -68.366
486.432     74.155   -69.648
493.507     74.097   -70.829
500.686     74.056   -71.939
507.968     74.051   -73.048
515.357     74.067   -74.426
522.853     74.068   -76.060
530.458     74.051   -77.753
538.174     74.025   -79.484
546.002     74.008   -81.083
553.943     74.058   -82.559
562.001     74.187   -84.473
570.175     74.315   -87.138
578.469     74.356   -90.405
586.883     74.264   -93.894
595.419     74.050   -96.959
604.080     73.765   -99.151
612.866     73.503  -100.453
621.780     73.369  -101.262
630.824     73.357  -102.251
640.000     73.391  -103.838
649.309     73.423  -105.966
658.753     73.410  -108.338
668.335     73.347  -110.679
678.056     73.278  -112.779
687.919     73.257  -114.673
697.925     73.304  -116.745
708.077     73.405  -119.524
718.376     73.447  -123.279
728.825     73.315  -127.232
739.426     73.111  -130.627
750.181     72.913  -133.828
761.093     72.680  -136.998
772.163     72.417  -139.938
783.394     72.122  -142.552
794.789     71.783  -144.528
806.349     71.466  -145.664
818.078     71.224  -146.285
829.977     71.083  -146.745
842.050     71.083  -147.595
854.298     71.164  -149.336
866.724     71.248  -151.763
879.330     71.333  -154.813
892.120     71.346  -158.596
905.097     71.196  -162.551
918.262     70.888  -166.011
931.618     70.483  -168.691
945.169     70.094  -170.577
958.917     69.831  -171.767
972.864     69.731  -172.837
987.015     69.730  -174.446
1001.37     69.735  -176.405
1015.94     69.694  -178.708
1030.71     69.564   178.503
1045.71     69.362   175.782
1060.92     69.154   173.173
1076.35     68.911   170.519
1092.00     68.581   168.621
1107.89     68.271   168.120
1124.00     68.128   168.160
1140.35     68.130   167.849
1156.94     68.234   167.111
1173.77     68.389   165.081
1190.84     68.402   161.682
1208.16     68.232   158.517
1225.73     68.029   156.013
1243.56     67.823   154.039
1261.65     67.690   152.883
1280.00     67.716   151.783
1298.62     67.798   150.252
1317.51     67.952   148.475
1336.67     68.158   145.811
1356.11     68.291   142.419
1375.84     68.413   139.025
1395.85     68.518   135.396
1416.15     68.554   131.762
1436.75     68.574   128.140
1457.65     68.524   124.222
1478.85     68.384   120.366
1500.36     68.179   116.570
1522.19     67.933   113.090
1544.33     67.763   110.242
1566.79     67.688   107.421
1589.58     67.675   104.387
1612.70     67.687   101.156
1636.16     67.681    97.460
1659.95     67.648    93.204
1684.10     67.531    88.639
1708.60     67.364    84.230
1733.45     67.211    80.209
1758.66     67.058    76.467
1784.24     66.940    72.933
1810.19     66.842    69.672
1836.52     66.737    66.728
1863.24     66.703    63.891
1890.34     66.791    60.731
1917.83     66.993    56.792
1945.73     67.263    51.865
1974.03     67.500    45.819
2002.74     67.609    38.719
2031.87     67.547    31.135
2061.43     67.332    23.680
2091.41     67.007    16.672
2121.83     66.639    10.608
2152.69     66.327     5.848
2184.01     66.122     1.775
2215.77     66.047    -2.645
2248.00     66.070    -8.112
2280.70     66.082   -15.187
2313.87     65.997   -23.457
2347.53     65.769   -31.605
2381.68     65.377   -38.836
2416.32     64.904   -44.924
2451.46     64.504   -49.759
2487.12     64.259   -54.141
2523.30     64.235   -59.269
2560.00     64.432   -65.300
2597.24     64.661   -72.216
2635.01     64.812   -80.310
2673.34     64.902   -89.168
2712.23     64.862   -98.102
2751.68     64.631  -106.775
2791.70     64.234  -114.446
2832.31     63.694  -120.381
2873.50     63.067  -124.618
2915.30     62.497  -127.631
2957.70     62.069  -130.094
3000.72     61.813  -132.576
3044.37     61.699  -135.585
3088.65     61.551  -139.058
3133.58     61.332  -142.068
3179.16     61.209  -145.250
3225.40     61.037  -149.552
3272.31     60.803  -154.420
3319.91     60.571  -159.856
3368.20     60.329  -166.140
3417.19     60.005  -172.881
3466.89     59.544  -179.280
3517.32     58.952   174.907
3568.48     58.272   169.949
3620.39     57.590   166.353
3673.05     57.050   163.865
3726.47     56.785   161.597
3780.67     56.878   158.708
3835.67     57.201   154.498
3891.46     57.608   149.065
3948.06     58.102   142.453
4005.49     58.592   134.498
4063.75     58.940   125.549
4122.86     59.131   115.964
4182.82     59.145   105.973
4243.66     58.951    95.586
4305.39     58.562    84.770
4368.01     57.915    73.861
4431.55     56.869    64.103
4496.01     55.414    57.768
4561.40     53.692    56.636
4627.75     52.197    61.261
4695.06     51.795    69.733
4763.35     52.656    77.975
4832.64     54.119    83.052
4902.93     55.497    83.348
4974.24     56.323    78.604
5046.60     56.530    71.675
5120.00     56.452    63.793
5194.47     56.230    55.626
5270.03     55.865    47.884
5346.68     55.355    40.263
5424.45     54.729    32.820
5503.35     53.978    25.221
5583.40     53.210    16.884
5664.61     52.574     7.205
5747.01     51.995    -4.628
5830.60     51.376   -18.259
5915.41     50.589   -32.100
6001.45     49.510   -43.899
6088.74     48.132   -51.245
6177.30     46.580   -53.020
6267.15     45.317   -50.974
6358.31     44.826   -47.449
6450.80     45.051   -44.479
6544.62     45.737   -44.366
6639.82     46.542   -46.957
6736.40     47.216   -51.980
6834.38     47.694   -60.306
6933.79     47.837   -71.409
7034.64     47.634   -84.373
7136.96     47.215   -97.903
7240.77     46.536  -111.232
7346.09     45.666  -124.692
7452.94     44.676  -139.102
7561.35     43.496  -154.229
7671.33     42.015  -167.908
7782.91     39.974   178.558
7896.12     37.682   162.217
8010.97     36.461   142.174
8127.49     37.456   114.185
8245.71     40.069    74.805
8365.65     42.800    27.038
8487.33     44.980   -24.654
8610.78     46.566   -73.932
8736.03     47.614  -115.485
8863.09     48.183  -149.965
8992.01     48.388  -178.471
9122.80     48.274   159.142
9255.50     47.805   145.121
9390.12     46.991   145.082
9526.70     45.988   159.779
9665.27     45.098  -177.611
9805.86     44.660  -154.049
9948.49     44.817  -137.064
10093.2     45.351  -133.369
10240.0     45.956  -141.356
10388.9     46.474  -154.937
10540.1     46.879  -170.268
10693.4     47.144   173.601
10848.9     47.137   156.181
11006.7     46.692   137.916
11166.8     45.749   120.480
11329.2     44.267   106.925
11494.0     42.322   101.477
11661.2     40.413   104.897
11830.8     39.483   112.686
12002.9     40.094   119.542
12177.5     41.510   121.224
12354.6     42.937   114.336
12534.3     43.938    99.363
12716.6     44.175    79.916
12901.6     43.706    57.076
13089.2     42.585    27.927
13279.6     40.702   -12.228
13472.8     38.215   -68.011
13668.8     35.349  -139.071
13867.6     32.834   139.129
14069.3     32.416    52.698
14273.9     33.902   -26.754
14481.5     35.506   -91.543
14692.2     36.646  -142.182
14905.9     37.315   179.619
15122.7     37.514   152.698
15342.7     37.706   133.660
15565.8     38.434   119.276
15792.2     39.678   106.426
16021.9     41.162    92.603
16255.0     42.541    76.835
16491.4     43.566    59.285
16731.3     44.168    41.129
16974.7     44.456    23.856
17221.6     44.589     8.303
17472.1     44.670    -5.688
17726.2     44.639   -18.032
17984.0     44.449   -28.352
18245.6     44.208   -36.530
18511.0     43.961   -42.372
18780.2     43.771   -46.772
19053.4     43.831   -51.107
19330.5     44.031   -56.210
19611.7     44.204   -63.427
19897.0     44.438   -73.291
20186.4     44.793   -85.110
20480.0     45.149   -98.996
20777.9     45.342  -114.953
21080.1     45.175  -131.208
21386.7     44.551  -146.169
21697.8     43.569  -159.834
22013.4     42.536  -172.504
22333.6     41.800   174.966
22658.4     41.502   160.428
22988.0     41.409   142.365
23322.4     41.147   121.831
23661.6     40.499   100.965
24005.8     39.584    80.919
24355.0     38.720    60.685
24709.2     38.222    37.543
25068.6     38.188    11.076
25433.2     38.456   -17.991
25803.2     38.900   -48.432
26178.5     39.398   -74.981
26559.3     39.906   -94.826
26945.6     40.572  -110.297
27337.5     41.414  -123.120
27735.2     42.393  -134.957
28138.6     43.423  -147.020
28547.9     44.330  -158.493
28963.1     45.147  -168.584
29384.4     45.907  -177.584
29811.8     46.493   173.725
30245.4     46.911   164.656
30685.3     47.238   154.670
31131.7     47.476   143.845
31584.5     47.702   132.796
32043.9     48.015   121.508
32510.0     48.352   109.333
32982.8     48.608    96.195
33462.6     48.695    82.372
33949.3     48.543    68.310
34443.1     48.179    55.472
34944.1     47.683    44.825
35452.4     47.146    35.798
35968.0     46.632    27.853
36491.2     46.207    20.678
37022.0     46.018    13.505
37560.5     46.328     5.485
38106.8     46.962    -1.673
38661.1     48.155    -8.525
39223.4     49.206   -12.690
39793.9     50.070   -15.279
