Freq[Hz]     dBSPL  Phase[Deg]
5.00000    -11.670   -12.420
5.07273    -11.314   -12.510
5.14651    -10.927   -12.608
5.22137    -10.495   -12.716
5.29732    -10.043   -12.830
5.37437     -9.571   -12.949
5.45254     -9.099   -13.071
5.53185     -8.627   -13.194
5.61231     -8.155   -13.319
5.69394     -7.683   -13.445
5.77676     -7.211   -13.574
5.86079     -6.739   -13.704
5.94604     -6.267   -13.836
6.03252     -5.795   -13.971
6.12027     -5.323   -14.107
6.20929     -4.851   -14.245
6.29961     -4.378   -14.385
6.39124     -3.906   -14.527
6.48420     -3.434   -14.672
6.57851     -2.962   -14.818
6.67420     -2.490   -14.966
6.77128     -2.017   -15.117
6.86977     -1.545   -15.270
6.96969     -1.073   -15.425
7.07107     -0.601   -15.582
7.17392     -0.128   -15.742
7.27827      0.344   -15.904
7.38413      0.817   -16.068
7.49154      1.289   -16.235
7.60050      1.761   -16.404
7.71105      2.234   -16.576
7.82321      2.706   -16.750
7.93701      3.179   -16.927
8.05245      3.651   -17.106
8.16958      4.124   -17.288
8.28841      4.596   -17.472
8.40896      5.069   -17.660
8.53128      5.542   -17.850
8.65537      6.014   -18.042
8.78126      6.487   -18.238
8.90899      6.960   -18.436
9.03857      7.433   -18.638
9.17004      7.906   -18.842
9.30342      8.378   -19.049
9.43874      8.851   -19.260
9.57603      9.324   -19.473
9.71532      9.797   -19.690
9.85663     10.270   -19.909
10.0000     10.743   -20.132
10.1455     11.217   -20.359
10.2930     11.690   -20.588
10.4427     12.163   -20.821
10.5946     12.636   -21.057
10.7487     13.110   -21.297
10.9051     13.583   -21.540
11.0637     14.056   -21.787
11.2246     14.530   -22.038
11.3879     15.004   -22.292
11.5535     15.477   -22.550
11.7216     15.951   -22.812
11.8921     16.425   -23.077
12.0650     16.899   -23.347
12.2405     17.372   -23.620
12.4186     17.846   -23.898
12.5992     18.321   -24.180
12.7825     18.795   -24.466
12.9684     19.269   -24.756
13.1570     19.743   -25.050
13.3484     20.218   -25.349
13.5426     20.692   -25.652
13.7395     21.167   -25.959
13.9394     21.641   -26.272
14.1421     22.116   -26.589
14.3478     22.591   -26.910
14.5565     23.066   -27.236
14.7683     23.541   -27.568
14.9831     24.017   -27.904
15.2010     24.492   -28.245
15.4221     24.967   -28.591
15.6464     25.443   -28.943
15.8740     25.919   -29.300
16.1049     26.395   -29.662
16.3392     26.871   -30.030
16.5768     27.347   -30.403
16.8179     27.823   -30.782
17.0626     28.300   -31.166
17.3107     28.776   -31.557
17.5625     29.253   -31.953
17.8180     29.730   -32.355
18.0771     30.208   -32.764
18.3401     30.685   -33.178
18.6068     31.163   -33.600
18.8775     31.641   -34.027
19.1521     32.119   -34.461
19.4306     32.597   -34.902
19.7133     33.074   -35.372
20.0000     33.546   -35.898
20.2909     34.008   -36.489
20.5860     34.454   -37.097
20.8855     34.884   -37.524
21.1893     35.301   -37.681
21.4975     35.717   -37.687
21.8102     36.146   -37.669
22.1274     36.598   -37.744
22.4492     37.077   -37.980
22.7758     37.582   -38.345
23.1071     38.101   -38.844
23.4432     38.624   -39.432
23.7841     39.140   -40.163
24.1301     39.644   -41.160
24.4811     40.134   -42.292
24.8372     40.612   -43.351
25.1984     41.083   -44.259
25.5649     41.554   -44.978
25.9368     42.025   -45.617
26.3141     42.499   -46.311
26.6968     42.975   -47.117
27.0851     43.450   -48.065
27.4791     43.925   -49.105
27.8788     44.399   -50.143
28.2843     44.872   -51.096
28.6957     45.347   -51.977
29.1131     45.824   -52.859
29.5365     46.305   -53.794
29.9661     46.787   -54.842
30.4020     47.268   -55.941
30.8442     47.743   -57.052
31.2929     48.211   -58.188
31.7480     48.670   -59.335
32.2098     49.124   -60.531
32.6783     49.580   -61.772
33.1536     50.046   -62.841
33.6359     50.525   -63.640
34.1251     51.017   -64.173
34.6215     51.522   -64.764
35.1250     52.036   -65.627
35.6359     52.555   -66.806
36.1543     53.083   -68.112
36.6802     53.617   -69.459
37.2137     54.150   -70.800
37.7550     54.677   -72.159
38.3041     55.197   -73.646
38.8613     55.707   -75.375
39.4265     56.215   -77.120
40.0000     56.724   -78.715
40.5818     57.239   -80.104
41.1721     57.758   -81.477
41.7710     58.278   -83.003
42.3785     58.796   -84.793
42.9949     59.309   -86.821
43.6203     59.814   -88.979
44.2548     60.312   -91.145
44.8985     60.803   -93.200
45.5515     61.287   -95.086
46.2141     61.770   -96.859
46.8863     62.254   -98.615
47.5683     62.741  -100.429
48.2602     63.234  -102.355
48.9621     63.732  -104.399
49.6743     64.234  -106.531
50.3968     64.737  -108.739
51.1299     65.240  -111.005
51.8736     65.741  -113.316
52.6281     66.238  -115.679
53.3936     66.731  -118.110
54.1702     67.218  -120.621
54.9581     67.700  -123.205
55.7575     68.176  -125.865
56.5685     68.648  -128.609
57.3914     69.113  -131.416
58.2261     69.570  -134.270
59.0730     70.020  -137.187
59.9323     70.459  -140.190
60.8040     70.887  -143.277
61.6884     71.303  -146.432
62.5857     71.708  -149.652
63.4960     72.101  -152.937
64.4196     72.477  -156.277
65.3566     72.835  -159.663
66.3073     73.175  -163.096
67.2717     73.499  -166.560
68.2502     73.811  -170.034
69.2429     74.114  -173.526
70.2501     74.406  -177.054
71.2719     74.679   179.372
72.3086     74.929   175.778
73.3603     75.155   172.214
74.4274     75.360   168.699
75.5099     75.547   165.240
76.6083     75.720   161.827
77.7226     75.880   158.441
78.8531     76.025   155.089
80.0000     76.155   151.781
81.1636     76.272   148.542
82.3442     76.381   145.393
83.5419     76.481   142.303
84.7570     76.572   139.252
85.9899     76.652   136.243
87.2406     76.722   133.285
88.5096     76.779   130.389
89.7970     76.828   127.573
91.1031     76.872   124.835
92.4282     76.913   122.157
93.7726     76.950   119.538
95.1366     76.982   116.974
96.5204     77.008   114.460
97.9243     77.031   111.998
99.3486     77.048   109.597
100.794     77.062   107.250
102.260     77.074   104.954
103.747     77.083   102.710
105.256     77.091   100.518
106.787     77.098    98.359
108.340     77.104    96.219
109.916     77.105    94.109
111.515     77.100    92.041
113.137     77.090    90.032
114.783     77.079    88.100
116.452     77.071    86.223
118.146     77.067    84.357
119.865     77.064    82.490
121.608     77.056    80.623
123.377     77.039    78.781
125.171     77.016    77.008
126.992     76.990    75.314
128.839     76.966    73.684
130.713     76.947    72.099
132.615     76.932    70.527
134.543     76.919    68.961
136.500     76.906    67.411
138.486     76.892    65.878
140.500     76.879    64.360
142.544     76.864    62.870
144.617     76.851    61.412
146.721     76.840    59.975
148.855     76.832    58.542
151.020     76.826    57.098
153.217     76.817    55.634
155.445     76.803    54.158
157.706     76.780    52.694
160.000     76.748    51.275
162.327     76.711    49.938
164.688     76.679    48.677
167.084     76.654    47.452
169.514     76.637    46.234
171.980     76.623    45.000
174.481     76.609    43.742
177.019     76.589    42.485
179.594     76.565    41.264
182.206     76.540    40.094
184.856     76.519    38.962
187.545     76.506    37.837
190.273     76.495    36.690
193.041     76.484    35.520
195.849     76.469    34.339
198.697     76.450    33.161
201.587     76.428    31.987
204.520     76.399    30.823
207.494     76.366    29.691
210.512     76.328    28.614
213.574     76.288    27.617
216.681     76.252    26.701
219.833     76.224    25.858
223.030     76.211    25.039
226.274     76.213    24.154
229.565     76.219    23.182
232.905     76.226    22.157
236.292     76.236    21.076
239.729     76.241    19.925
243.216     76.235    18.722
246.754     76.216    17.507
250.343     76.180    16.311
253.984     76.127    15.199
257.678     76.070    14.272
261.426     76.028    13.479
265.229     76.011    12.681
269.087     76.010    11.764
273.001     76.008    10.674
276.972     75.986     9.489
281.000     75.944     8.367
285.088     75.900     7.374
289.234     75.866     6.450
293.441     75.850     5.471
297.709     75.837     4.337
302.040     75.801     3.086
306.433     75.735     1.884
310.890     75.651     0.873
315.412     75.572     0.080
320.000     75.522    -0.606
324.655     75.500    -1.367
329.377     75.493    -2.318
334.168     75.482    -3.487
339.028     75.441    -4.820
343.959     75.357    -6.149
348.962     75.242    -7.275
354.038     75.121    -8.164
359.188     75.004    -8.875
364.412     74.908    -9.439
369.713     74.847   -10.001
375.090     74.801   -10.724
380.546     74.744   -11.569
386.081     74.678   -12.422
391.697     74.603   -13.285
397.394     74.514   -14.209
403.175     74.401   -15.129
409.039     74.259   -15.915
414.989     74.098   -16.458
421.025     73.941   -16.634
427.149     73.826   -16.482
433.362     73.779   -16.271
439.665     73.788   -16.290
446.060     73.823   -16.736
452.548     73.835   -17.591
459.131     73.795   -18.599
465.809     73.702   -19.511
472.584     73.572   -20.076
479.458     73.459   -20.152
486.432     73.411   -19.984
493.507     73.424   -19.920
500.686     73.476   -20.125
507.968     73.540   -20.748
515.357     73.558   -21.763
522.853     73.512   -22.831
530.458     73.430   -23.711
538.174     73.333   -24.350
546.002     73.257   -24.752
553.943     73.211   -25.227
562.001     73.143   -25.864
570.175     73.045   -26.368
578.469     72.938   -26.697
586.883     72.826   -26.745
595.419     72.759   -26.462
604.080     72.773   -26.150
612.866     72.854   -26.093
621.780     72.960   -26.577
630.824     73.037   -27.609
640.000     73.052   -28.808
649.309     73.018   -29.982
658.753     72.949   -31.149
668.335     72.840   -32.120
678.056     72.716   -32.698
687.919     72.604   -32.991
697.925     72.517   -32.985
708.077     72.497   -32.798
718.376     72.512   -33.040
728.825     72.481   -33.568
739.426     72.436   -33.863
750.181     72.408   -34.076
761.093     72.395   -34.354
772.163     72.369   -34.551
783.394     72.338   -34.441
794.789     72.357   -34.110
806.349     72.446   -33.844
818.078     72.595   -33.867
829.977     72.771   -34.378
842.050     72.916   -35.239
854.298     73.028   -36.132
866.724     73.122   -37.159
879.330     73.184   -38.337
892.120     73.225   -39.333
905.097     73.292   -40.230
918.262     73.388   -41.288
931.618     73.490   -42.427
945.169     73.595   -43.598
958.917     73.704   -44.890
972.864     73.832   -46.380
987.015     73.981   -48.128
1001.37     74.138   -50.212
1015.94     74.290   -52.765
1030.71     74.379   -55.806
1045.71     74.349   -59.045
1060.92     74.214   -62.150
1076.35     73.992   -64.966
1092.00     73.700   -67.360
1107.89     73.393   -69.303
1124.00     73.083   -70.835
1140.35     72.756   -71.920
1156.94     72.432   -72.471
1173.77     72.153   -72.293
1190.84     71.982   -71.522
1208.16     71.958   -70.603
1225.73     72.088   -69.927
1243.56     72.339   -70.118
1261.65     72.598   -71.440
1280.00     72.783   -73.531
1298.62     72.864   -75.948
1317.51     72.855   -78.060
1336.67     72.849   -79.800
1356.11     72.881   -81.711
1375.84     72.913   -83.956
1395.85     72.903   -86.551
1416.15     72.813   -89.332
1436.75     72.648   -91.799
1457.65     72.448   -93.754
1478.85     72.286   -95.396
1500.36     72.178   -97.071
1522.19     72.042   -98.931
1544.33     71.865  -100.629
1566.79     71.683  -101.750
1589.58     71.526  -102.310
1612.70     71.471  -102.518
1636.16     71.559  -102.863
1659.95     71.724  -104.096
1684.10     71.875  -106.288
1708.60     71.975  -108.909
1733.45     72.025  -111.587
1758.66     72.046  -114.200
1784.24     72.033  -116.885
1810.19     71.958  -119.732
1836.52     71.820  -122.566
1863.24     71.626  -125.273
1890.34     71.394  -127.588
1917.83     71.186  -129.205
1945.73     71.041  -130.293
1974.03     70.987  -131.106
2002.74     71.050  -132.000
2031.87     71.208  -133.563
2061.43     71.424  -136.067
2091.41     71.630  -139.643
2121.83     71.718  -144.158
2152.69     71.656  -148.901
2184.01     71.477  -153.318
2215.77     71.218  -157.300
2248.00     70.910  -160.815
2280.70     70.556  -163.776
2313.87     70.217  -166.075
2347.53     69.971  -167.934
2381.68     69.796  -169.621
2416.32     69.668  -170.941
2451.46     69.632  -171.985
2487.12     69.665  -173.373
2523.30     69.679  -175.213
2560.00     69.653  -177.105
2597.24     69.634  -179.036
2635.01     69.609   178.933
2673.34     69.555   177.156
2712.23     69.520   175.684
2751.68     69.528   174.133
2791.70     69.533   172.368
2832.31     69.508   170.478
2873.50     69.468   168.483
2915.30     69.428   166.271
2957.70     69.377   163.933
3000.72     69.354   161.736
3044.37     69.384   159.447
3088.65     69.384   157.030
3133.58     69.379   155.089
3179.16     69.484   152.751
3225.40     69.506   149.547
3272.31     69.440   146.433
3319.91     69.319   143.526
3368.20     69.130   141.154
3417.19     68.942   139.673
3466.89     68.811   138.812
3517.32     68.782   138.262
3568.48     68.885   137.458
3620.39     69.041   135.989
3673.05     69.178   133.849
3726.47     69.240   131.134
3780.67     69.186   128.410
3835.67     69.042   126.277
3891.46     68.882   124.925
3948.06     68.793   124.197
4005.49     68.814   123.620
4063.75     68.920   122.698
4122.86     69.047   121.056
4182.82     69.118   118.787
4243.66     69.100   116.263
4305.39     69.000   113.721
4368.01     68.850   111.446
4431.55     68.683   109.546
4496.01     68.514   107.923
4561.40     68.340   106.585
4627.75     68.172   105.409
4695.06     68.019   104.195
4763.35     67.870   102.982
4832.64     67.740   101.880
4902.93     67.656   100.739
4974.24     67.511    99.252
5046.60     67.277    98.477
5120.00     67.108    98.150
5194.47     66.994    97.592
5270.03     66.872    96.716
5346.68     66.687    95.610
5424.45     66.445    94.597
5503.35     66.159    93.933
5583.40     65.863    93.587
5664.61     65.590    93.518
5747.01     65.302    93.559
5830.60     64.974    93.901
5915.41     64.621    95.063
6001.45     64.317    96.990
6088.74     64.166    99.234
6177.30     64.172   101.220
6267.15     64.251   102.365
6358.31     64.331   102.726
6450.80     64.353   102.838
6544.62     64.272   102.994
6639.82     64.107   103.407
6736.40     63.905   104.280
6834.38     63.671   105.787
6933.79     63.453   108.207
7034.64     63.346   111.202
7136.96     63.336   114.253
7240.77     63.434   117.379
7346.09     63.693   119.844
7452.94     63.989   120.952
7561.35     64.192   121.568
7671.33     64.364   122.174
7782.91     64.481   122.281
7896.12     64.443   122.315
8010.97     64.329   122.909
8127.49     64.256   123.673
8245.71     64.202   124.262
8365.65     64.157   124.866
8487.33     64.144   125.526
8610.78     64.138   125.969
8736.03     64.098   126.346
8863.09     64.069   127.061
8992.01     64.110   127.588
9122.80     64.156   127.346
9255.50     64.149   126.710
9390.12     64.108   125.747
9526.70     63.979   124.292
9665.27     63.720   122.876
9805.86     63.378   121.889
9948.49     62.939   121.433
10093.2     62.408   122.009
10240.0     61.876   123.646
10388.9     61.340   126.162
10540.1     60.830   129.942
10693.4     60.458   134.638
10848.9     60.212   139.733
11006.7     60.151   145.157
11166.8     60.339   150.155
11329.2     60.687   154.087
11494.0     61.127   156.751
11661.2     61.559   157.923
11830.8     61.860   157.909
12002.9     61.994   157.313
12177.5     61.978   156.572
12354.6     61.835   155.989
12534.3     61.604   155.776
12716.6     61.316   155.841
12901.6     60.964   156.056
13089.2     60.541   156.523
13279.6     60.042   157.196
13472.8     59.459   158.461
13668.8     58.848   160.742
13867.6     58.263   163.835
14069.3     57.737   167.838
14273.9     57.314   172.384
14481.5     56.969   176.662
14692.2     56.664  -179.380
14905.9     56.395  -175.745
15122.7     56.150  -172.437
15342.7     55.946  -169.337
15565.8     55.779  -166.518
15792.2     55.595  -164.046
16021.9     55.340  -162.008
16255.0     54.951  -160.015
16491.4     54.392  -157.385
16731.3     53.689  -153.664
16974.7     52.849  -148.356
17221.6     51.937  -141.183
17472.1     51.136  -132.397
17726.2     50.636  -122.856
17984.0     50.552  -113.694
18245.6     50.766  -105.891
18511.0     51.037   -99.969
18780.2     51.173   -95.183
19053.4     51.075   -90.165
19330.5     50.873   -84.251
19611.7     50.770   -77.361
19897.0     50.872   -70.122
20186.4     51.220   -63.681
20480.0     51.698   -58.971
20777.9     52.137   -56.126
21080.1     52.447   -54.443
21386.7     52.587   -53.341
21697.8     52.535   -52.117
22013.4     52.271   -49.882
22333.6     51.795   -46.354
22658.4     51.132   -41.442
22988.0     50.332   -35.147
23322.4     49.547   -27.292
23661.6     48.926   -17.689
24005.8     48.564    -7.299
24355.0     48.539     2.695
24709.2     48.728    11.815
25068.6     48.917    19.456
25433.2     49.049    25.411
25803.2     49.100    30.694
26178.5     49.020    36.276
26559.3     48.843    42.345
26945.6     48.656    48.908
27337.5     48.491    56.128
27735.2     48.380    64.421
28138.6     48.368    73.739
28547.9     48.464    83.464
28963.1     48.682    93.054
29384.4     48.974   101.485
29811.8     49.260   107.851
30245.4     49.485   112.450
30685.3     49.594   116.336
31131.7     49.628   120.719
31584.5     49.671   126.173
32043.9     49.733   132.700
32510.0     49.831   139.955
32982.8     49.958   147.029
33462.6     50.054   153.411
33949.3     50.088   159.379
34443.1     50.108   165.260
34944.1     50.209   170.969
35452.4     50.393   176.330
35968.0     50.585  -178.840
36491.2     50.736  -174.762
37022.0     50.795  -170.984
37560.5     50.689  -166.806
38106.8     50.469  -162.007
38661.1     50.126  -156.318
39223.4     49.805  -150.106
39793.9     49.523  -143.661
