Freq[Hz]     dBSPL  Phase[Deg]
5.00000    -12.439   -13.140
5.07273    -12.082   -13.232
5.14651    -11.692   -13.332
5.22137    -11.256   -13.444
5.29732    -10.801   -13.562
5.37437    -10.325   -13.686
5.45254     -9.849   -13.812
5.53185     -9.373   -13.940
5.61231     -8.897   -14.070
5.69394     -8.421   -14.201
5.77676     -7.944   -14.335
5.86079     -7.468   -14.470
5.94604     -6.992   -14.608
6.03252     -6.516   -14.747
6.12027     -6.040   -14.889
6.20929     -5.564   -15.032
6.29961     -5.087   -15.178
6.39124     -4.611   -15.325
6.48420     -4.135   -15.475
6.57851     -3.659   -15.627
6.67420     -3.182   -15.782
6.77128     -2.706   -15.938
6.86977     -2.230   -16.097
6.96969     -1.753   -16.258
7.07107     -1.277   -16.422
7.17392     -0.801   -16.588
7.27827     -0.324   -16.756
7.38413      0.152   -16.927
7.49154      0.629   -17.100
7.60050      1.105   -17.276
7.71105      1.582   -17.454
7.82321      2.058   -17.635
7.93701      2.535   -17.819
8.05245      3.011   -18.005
8.16958      3.488   -18.194
8.28841      3.965   -18.386
8.40896      4.441   -18.580
8.53128      4.918   -18.778
8.65537      5.395   -18.978
8.78126      5.872   -19.181
8.90899      6.348   -19.388
9.03857      6.825   -19.597
9.17004      7.302   -19.809
9.30342      7.779   -20.024
9.43874      8.256   -20.243
9.57603      8.733   -20.465
9.71532      9.210   -20.690
9.85663      9.687   -20.918
10.0000     10.164   -21.150
10.1455     10.642   -21.385
10.2930     11.119   -21.624
10.4427     11.596   -21.866
10.5946     12.074   -22.111
10.7487     12.551   -22.360
10.9051     13.028   -22.613
11.0637     13.506   -22.870
11.2246     13.984   -23.130
11.3879     14.461   -23.394
11.5535     14.939   -23.663
11.7216     15.417   -23.935
11.8921     15.895   -24.211
12.0650     16.372   -24.491
12.2405     16.850   -24.775
12.4186     17.329   -25.064
12.5992     17.807   -25.356
12.7825     18.285   -25.653
12.9684     18.763   -25.955
13.1570     19.242   -26.261
13.3484     19.720   -26.571
13.5426     20.199   -26.886
13.7395     20.677   -27.206
13.9394     21.156   -27.530
14.1421     21.635   -27.860
14.3478     22.114   -28.194
14.5565     22.593   -28.533
14.7683     23.072   -28.877
14.9831     23.551   -29.226
15.2010     24.031   -29.581
15.4221     24.510   -29.941
15.6464     24.990   -30.306
15.8740     25.470   -30.677
16.1049     25.950   -31.053
16.3392     26.430   -31.435
16.5768     26.910   -31.823
16.8179     27.391   -32.216
17.0626     27.871   -32.616
17.3107     28.352   -33.021
17.5625     28.833   -33.433
17.8180     29.314   -33.851
18.0771     29.795   -34.275
18.3401     30.277   -34.706
18.6068     30.759   -35.144
18.8775     31.241   -35.588
19.1521     31.723   -36.039
19.4306     32.205   -36.497
19.7133     32.687   -36.978
20.0000     33.169   -37.502
20.2909     33.647   -38.070
20.5860     34.116   -38.640
20.8855     34.569   -39.061
21.1893     35.001   -39.276
21.4975     35.423   -39.405
21.8102     35.848   -39.558
22.1274     36.288   -39.795
22.4492     36.756   -40.102
22.7758     37.253   -40.416
23.1071     37.772   -40.788
23.4432     38.303   -41.228
23.7841     38.833   -41.849
24.1301     39.354   -42.831
24.4811     39.861   -44.025
24.8372     40.351   -45.186
25.1984     40.827   -46.205
25.5649     41.296   -47.011
25.9368     41.763   -47.708
26.3141     42.235   -48.437
26.6968     42.712   -49.268
27.0851     43.192   -50.244
27.4791     43.674   -51.325
27.8788     44.153   -52.421
28.2843     44.629   -53.434
28.6957     45.104   -54.372
29.1131     45.580   -55.305
29.5365     46.059   -56.285
29.9661     46.541   -57.377
30.4020     47.020   -58.513
30.8442     47.496   -59.648
31.2929     47.968   -60.799
31.7480     48.436   -61.978
32.2098     48.900   -63.259
32.6783     49.363   -64.656
33.1536     49.819   -65.908
33.6359     50.272   -66.832
34.1251     50.729   -67.366
34.6215     51.212   -67.837
35.1250     51.727   -68.545
35.6359     52.264   -69.642
36.1543     52.808   -70.966
36.6802     53.350   -72.390
37.2137     53.884   -73.804
37.7550     54.409   -75.205
38.3041     54.931   -76.697
38.8613     55.454   -78.447
39.4265     55.972   -80.265
40.0000     56.483   -81.949
40.5818     56.991   -83.387
41.1721     57.503   -84.750
41.7710     58.024   -86.224
42.3785     58.554   -87.972
42.9949     59.087   -90.012
43.6203     59.616   -92.257
44.2548     60.132   -94.578
44.8985     60.630   -96.829
45.5515     61.111   -98.907
46.2141     61.581  -100.830
46.8863     62.050  -102.685
47.5683     62.524  -104.552
48.2602     63.008  -106.506
48.9621     63.501  -108.570
49.6743     64.001  -110.720
50.3968     64.504  -112.950
51.1299     65.010  -115.243
51.8736     65.514  -117.584
52.6281     66.016  -119.992
53.3936     66.513  -122.489
54.1702     67.005  -125.083
54.9581     67.490  -127.761
55.7575     67.967  -130.516
56.5685     68.437  -133.356
57.3914     68.898  -136.252
58.2261     69.350  -139.181
59.0730     69.794  -142.158
59.9323     70.230  -145.210
60.8040     70.657  -148.343
61.6884     71.073  -151.543
62.5857     71.480  -154.814
63.4960     71.876  -158.159
64.4196     72.255  -161.576
65.3566     72.615  -165.057
66.3073     72.955  -168.594
67.2717     73.277  -172.165
68.2502     73.585  -175.736
69.2429     73.884  -179.296
70.2501     74.174   177.141
71.2719     74.451   173.545
72.3086     74.707   169.918
73.3603     74.940   166.294
74.4274     75.151   162.686
75.5099     75.343   159.108
76.6083     75.518   155.561
77.7226     75.679   152.039
78.8531     75.824   148.553
80.0000     75.953   145.109
81.1636     76.066   141.737
82.3442     76.167   138.472
83.5419     76.259   135.292
84.7570     76.343   132.172
85.9899     76.420   129.112
87.2406     76.490   126.101
88.5096     76.551   123.137
89.7970     76.604   120.234
91.1031     76.650   117.397
92.4282     76.694   114.618
93.7726     76.733   111.897
95.1366     76.766   109.231
96.5204     76.795   106.613
97.9243     76.820   104.045
99.3486     76.840   101.532
100.794     76.857    99.071
102.260     76.871    96.657
103.747     76.882    94.293
105.256     76.890    91.986
106.787     76.898    89.725
108.340     76.906    87.497
109.916     76.913    85.301
111.515     76.915    83.142
113.137     76.914    81.030
114.783     76.914    78.978
116.452     76.919    76.965
118.146     76.930    74.945
119.865     76.941    72.898
121.608     76.946    70.822
123.377     76.938    68.746
125.171     76.917    66.735
126.992     76.890    64.815
128.839     76.864    62.977
130.713     76.844    61.194
132.615     76.829    59.425
134.543     76.815    57.648
136.500     76.797    55.882
138.486     76.775    54.151
140.500     76.752    52.475
142.544     76.728    50.865
144.617     76.710    49.316
146.721     76.700    47.797
148.855     76.699    46.273
151.020     76.701    44.716
153.217     76.703    43.119
155.445     76.699    41.502
157.706     76.688    39.892
160.000     76.670    38.314
162.327     76.649    36.804
164.688     76.633    35.361
167.084     76.626    33.948
169.514     76.628    32.528
171.980     76.636    31.065
174.481     76.642    29.538
177.019     76.639    27.975
179.594     76.626    26.423
182.206     76.605    24.920
184.856     76.583    23.492
187.545     76.568    22.119
190.273     76.560    20.758
193.041     76.557    19.394
195.849     76.559    18.022
198.697     76.565    16.620
201.587     76.574    15.157
204.520     76.580    13.616
207.494     76.574    12.021
210.512     76.552    10.419
213.574     76.515     8.871
216.681     76.467     7.410
219.833     76.415     6.033
223.030     76.364     4.759
226.274     76.323     3.573
229.565     76.295     2.432
232.905     76.282     1.335
236.292     76.290     0.248
239.729     76.318    -0.939
243.216     76.353    -2.301
246.754     76.377    -3.821
250.343     76.378    -5.429
253.984     76.356    -7.029
257.678     76.314    -8.528
261.426     76.270    -9.873
265.229     76.242   -11.121
269.087     76.233   -12.408
273.001     76.231   -13.785
276.972     76.223   -15.231
281.000     76.205   -16.676
285.088     76.183   -18.038
289.234     76.169   -19.340
293.441     76.173   -20.657
297.709     76.186   -22.083
302.040     76.191   -23.649
306.433     76.180   -25.234
310.890     76.160   -26.777
315.412     76.141   -28.295
320.000     76.130   -29.816
324.655     76.125   -31.452
329.377     76.110   -33.214
334.168     76.079   -35.007
339.028     76.036   -36.803
343.959     75.985   -38.595
348.962     75.924   -40.408
354.038     75.843   -42.251
359.188     75.735   -44.014
364.412     75.614   -45.611
369.713     75.498   -47.040
375.090     75.399   -48.375
380.546     75.316   -49.726
386.081     75.237   -51.114
391.697     75.151   -52.543
397.394     75.058   -53.988
403.175     74.959   -55.393
409.039     74.851   -56.794
414.989     74.731   -58.175
421.025     74.592   -59.379
427.149     74.455   -60.294
433.362     74.354   -60.951
439.665     74.311   -61.543
446.060     74.320   -62.329
452.548     74.345   -63.431
459.131     74.355   -64.755
465.809     74.354   -66.192
472.584     74.335   -67.698
479.458     74.293   -69.136
486.432     74.254   -70.454
493.507     74.222   -71.786
500.686     74.192   -73.114
507.968     74.180   -74.439
515.357     74.176   -75.958
522.853     74.155   -77.622
530.458     74.121   -79.257
538.174     74.090   -80.884
546.002     74.079   -82.387
553.943     74.138   -83.786
562.001     74.281   -85.623
570.175     74.431   -88.247
578.469     74.495   -91.542
586.883     74.421   -95.104
595.419     74.222   -98.276
604.080     73.947  -100.581
612.866     73.692  -101.976
621.780     73.564  -102.896
630.824     73.551  -104.026
640.000     73.579  -105.758
649.309     73.594  -108.013
658.753     73.556  -110.430
668.335     73.469  -112.686
678.056     73.393  -114.636
687.919     73.375  -116.401
697.925     73.429  -118.363
708.077     73.544  -121.040
718.376     73.607  -124.738
728.825     73.493  -128.680
739.426     73.306  -132.090
750.181     73.118  -135.286
761.093     72.894  -138.405
772.163     72.644  -141.274
783.394     72.365  -143.797
794.789     72.051  -145.685
806.349     71.769  -146.818
818.078     71.560  -147.523
829.977     71.440  -148.058
842.050     71.456  -148.902
854.298     71.562  -150.613
866.724     71.670  -153.037
879.330     71.780  -156.080
892.120     71.824  -159.882
905.097     71.716  -163.943
918.262     71.455  -167.611
931.618     71.090  -170.589
945.169     70.729  -172.770
958.917     70.478  -174.171
972.864     70.371  -175.382
987.015     70.357  -177.050
1001.37     70.355  -179.007
1015.94     70.311   178.673
1030.71     70.180   175.880
1045.71     69.981   173.249
1060.92     69.785   170.802
1076.35     69.566   168.302
1092.00     69.269   166.421
1107.89     68.988   165.700
1124.00     68.855   165.412
1140.35     68.855   164.844
1156.94     68.960   163.949
1173.77     69.124   161.954
1190.84     69.169   158.791
1208.16     69.067   155.790
1225.73     68.940   153.158
1243.56     68.788   150.823
1261.65     68.684   149.209
1280.00     68.713   147.702
1298.62     68.792   145.917
1317.51     68.948   143.981
1336.67     69.168   141.262
1356.11     69.328   137.779
1375.84     69.449   134.088
1395.85     69.507   130.150
1416.15     69.475   126.317
1436.75     69.438   122.607
1457.65     69.379   118.644
1478.85     69.261   114.761
1500.36     69.093   111.017
1522.19     68.883   107.648
1544.33     68.705   105.096
1566.79     68.607   102.785
1589.58     68.590   100.343
1612.70     68.644    97.747
1636.16     68.744    94.520
1659.95     68.847    90.352
1684.10     68.877    85.467
1708.60     68.838    80.375
1733.45     68.761    75.322
1758.66     68.613    70.331
1784.24     68.398    65.644
1810.19     68.136    61.589
1836.52     67.835    58.436
1863.24     67.588    56.137
1890.34     67.525    54.185
1917.83     67.694    51.851
1945.73     68.056    48.530
1974.03     68.487    43.688
2002.74     68.831    37.093
2031.87     68.990    29.337
2061.43     68.933    21.239
2091.41     68.683    13.362
2121.83     68.301     6.471
2152.69     67.884     1.103
2184.01     67.545    -3.109
2215.77     67.350    -7.113
2248.00     67.308   -11.821
2280.70     67.334   -17.771
2313.87     67.307   -24.845
2347.53     67.172   -32.329
2381.68     66.893   -39.481
2416.32     66.503   -45.843
2451.46     66.160   -51.186
2487.12     65.938   -55.950
2523.30     65.859   -60.841
2560.00     65.946   -65.978
2597.24     66.081   -71.497
2635.01     66.173   -77.684
2673.34     66.264   -84.307
2712.23     66.321   -91.116
2751.68     66.275   -98.066
2791.70     66.142  -104.779
2832.31     65.896  -110.928
2873.50     65.517  -116.470
2915.30     65.095  -121.388
2957.70     64.695  -125.714
3000.72     64.363  -129.486
3044.37     64.146  -133.060
3088.65     63.973  -136.657
3133.58     63.835  -140.082
3179.16     63.791  -144.337
3225.40     63.663  -150.012
3272.31     63.422  -156.333
3319.91     63.073  -163.021
3368.20     62.630  -169.736
3417.19     62.154  -175.962
3466.89     61.655   178.416
3517.32     61.144   173.367
3568.48     60.650   169.015
3620.39     60.205   165.205
3673.05     59.833   161.691
3726.47     59.608   158.454
3780.67     59.621   154.948
3835.67     59.809   150.719
3891.46     60.111   145.867
3948.06     60.499   140.080
4005.49     60.857   133.303
4063.75     61.129   125.713
4122.86     61.294   117.128
4182.82     61.298   107.467
4243.66     61.058    96.743
4305.39     60.505    85.631
4368.01     59.645    75.102
4431.55     58.511    66.158
4496.01     57.207    60.160
4561.40     55.973    57.390
4627.75     55.072    57.585
4695.06     54.639    60.006
4763.35     54.659    62.880
4832.64     55.011    65.056
4902.93     55.479    65.349
4974.24     55.830    62.327
5046.60     55.885    57.263
5120.00     55.749    51.071
5194.47     55.466    44.194
5270.03     54.992    37.372
5346.68     54.394    30.894
5424.45     53.750    24.906
5503.35     53.094    18.795
5583.40     52.559    11.444
5664.61     52.122     2.133
5747.01     51.602    -9.799
5830.60     50.814   -23.876
5915.41     49.585   -37.445
6001.45     47.857   -47.256
6088.74     45.890   -51.267
6177.30     43.815   -51.134
6267.15     42.052   -48.092
6358.31     41.170   -42.014
6450.80     41.293   -34.836
6544.62     42.507   -29.597
6639.82     44.057   -29.998
6736.40     45.186   -35.918
6834.38     45.680   -45.932
6933.79     45.667   -55.427
7034.64     45.541   -60.748
7136.96     45.674   -61.989
7240.77     46.107   -60.666
7346.09     46.652   -59.959
7452.94     46.912   -62.907
7561.35     46.619   -69.152
7671.33     45.784   -77.551
7782.91     44.541   -90.771
7896.12     43.011  -113.749
8010.97     41.217  -149.536
8127.49     39.307   159.093
8245.71     38.764    92.290
8365.65     40.950    27.866
8487.33     43.955   -21.709
8610.78     46.347   -59.361
8736.03     47.924   -89.336
8863.09     48.592  -115.541
8992.01     48.276  -138.366
9122.80     47.278  -155.160
9255.50     46.108  -164.658
9390.12     45.408  -167.798
9526.70     45.706  -167.242
9665.27     46.684  -167.085
9805.86     47.789  -170.665
9948.49     48.621  -179.563
10093.2     48.919   167.232
10240.0     48.679   153.161
10388.9     48.006   140.121
10540.1     46.940   128.884
10693.4     45.534   121.222
10848.9     43.908   117.488
11006.7     42.311   116.900
11166.8     41.264   118.276
11329.2     41.353   118.702
11494.0     42.587   115.486
11661.2     44.444   106.673
11830.8     46.154    90.899
12002.9     47.233    69.012
12177.5     47.487    41.788
12354.6     46.890     8.657
12534.3     45.608   -31.424
12716.6     43.924   -79.525
12901.6     42.194  -133.704
13089.2     40.929   171.048
13279.6     40.242   119.514
13472.8     39.907    74.770
13668.8     39.707    36.152
13867.6     39.551    -0.116
14069.3     39.582   -38.164
14273.9     39.855   -80.728
14481.5     40.279  -126.845
14692.2     40.771  -173.303
14905.9     41.200   142.624
15122.7     41.388   102.546
15342.7     41.156    66.812
15565.8     40.532    35.850
15792.2     39.586    10.389
16021.9     38.369    -8.020
16255.0     37.197   -17.591
16491.4     36.510   -20.092
16731.3     36.694   -20.359
16974.7     37.733   -23.458
17221.6     39.020   -34.283
17472.1     39.981   -54.362
17726.2     40.294   -80.008
17984.0     39.937  -105.542
18245.6     39.152  -124.724
18511.0     38.281  -135.120
18780.2     37.661  -139.964
19053.4     37.411  -143.666
19330.5     37.386  -153.241
19611.7     37.177  -175.975
19897.0     36.538   145.960
20186.4     35.808    94.342
20480.0     35.576    34.645
20777.9     35.780   -28.622
21080.1     36.045   -92.381
21386.7     36.152  -151.319
21697.8     35.692   159.307
22013.4     34.393   127.432
22333.6     32.691   119.493
22658.4     31.061   133.647
22988.0     30.081   164.725
23322.4     30.390  -159.390
23661.6     31.835  -133.005
24005.8     33.505  -121.544
24355.0     34.719  -124.575
24709.2     35.414  -137.502
25068.6     35.584  -155.102
25433.2     35.278  -175.224
25803.2     34.818   161.526
26178.5     34.431   130.345
26559.3     34.294    86.789
26945.6     34.589    31.946
27337.5     35.363   -29.634
27735.2     36.269   -92.948
28138.6     36.874  -151.993
28547.9     37.121   156.548
28963.1     37.095   106.832
29384.4     37.122    52.109
29811.8     37.883    -6.911
30245.4     39.624   -68.364
30685.3     41.560  -128.219
31131.7     43.047  -178.374
31584.5     44.078   144.312
32043.9     44.612   117.473
32510.0     44.661    98.818
32982.8     44.448    85.671
33462.6     44.046    74.347
33949.3     43.491    62.123
34443.1     42.718    48.067
34944.1     41.708    32.878
35452.4     40.790    18.085
35968.0     40.128     3.489
36491.2     39.553   -12.487
37022.0     38.915   -31.718
37560.5     38.179   -58.691
38106.8     37.162   -90.423
38661.1     36.469  -128.791
39223.4     36.047  -159.874
39793.9     35.831   174.276
