Freq[Hz]     dBSPL  Phase[Deg]
5.00000    -12.029   -12.882
5.07273    -11.672   -12.972
5.14651    -11.284   -13.070
5.22137    -10.850   -13.178
5.29732    -10.397   -13.292
5.37437     -9.923   -13.411
5.45254     -9.449   -13.533
5.53185     -8.975   -13.656
5.61231     -8.501   -13.781
5.69394     -8.027   -13.908
5.77676     -7.553   -14.036
5.86079     -7.079   -14.167
5.94604     -6.606   -14.299
6.03252     -6.132   -14.434
6.12027     -5.658   -14.570
6.20929     -5.184   -14.708
6.29961     -4.710   -14.849
6.39124     -4.236   -14.991
6.48420     -3.762   -15.135
6.57851     -3.288   -15.282
6.67420     -2.813   -15.431
6.77128     -2.339   -15.581
6.86977     -1.865   -15.734
6.96969     -1.391   -15.890
7.07107     -0.917   -16.047
7.17392     -0.443   -16.207
7.27827      0.031   -16.369
7.38413      0.506   -16.534
7.49154      0.980   -16.701
7.60050      1.454   -16.870
7.71105      1.929   -17.042
7.82321      2.403   -17.216
7.93701      2.877   -17.393
8.05245      3.352   -17.572
8.16958      3.826   -17.754
8.28841      4.301   -17.939
8.40896      4.775   -18.126
8.53128      5.250   -18.317
8.65537      5.724   -18.510
8.78126      6.199   -18.705
8.90899      6.673   -18.904
9.03857      7.148   -19.106
9.17004      7.623   -19.310
9.30342      8.097   -19.518
9.43874      8.572   -19.728
9.57603      9.047   -19.942
9.71532      9.522   -20.158
9.85663      9.997   -20.378
10.0000     10.472   -20.602
10.1455     10.947   -20.828
10.2930     11.422   -21.058
10.4427     11.897   -21.291
10.5946     12.372   -21.527
10.7487     12.847   -21.767
10.9051     13.322   -22.011
11.0637     13.798   -22.258
11.2246     14.273   -22.509
11.3879     14.749   -22.763
11.5535     15.224   -23.022
11.7216     15.700   -23.284
11.8921     16.175   -23.549
12.0650     16.651   -23.819
12.2405     17.127   -24.093
12.4186     17.603   -24.371
12.5992     18.078   -24.653
12.7825     18.555   -24.939
12.9684     19.031   -25.229
13.1570     19.507   -25.524
13.3484     19.983   -25.823
13.5426     20.459   -26.126
13.7395     20.936   -26.434
13.9394     21.412   -26.747
14.1421     21.889   -27.064
14.3478     22.366   -27.386
14.5565     22.843   -27.713
14.7683     23.320   -28.044
14.9831     23.797   -28.381
15.2010     24.274   -28.722
15.4221     24.751   -29.069
15.6464     25.229   -29.421
15.8740     25.707   -29.778
16.1049     26.184   -30.141
16.3392     26.662   -30.508
16.5768     27.140   -30.882
16.8179     27.619   -31.261
17.0626     28.097   -31.646
17.3107     28.575   -32.037
17.5625     29.054   -32.434
17.8180     29.533   -32.836
18.0771     30.012   -33.245
18.3401     30.491   -33.660
18.6068     30.971   -34.082
18.8775     31.451   -34.510
19.1521     31.931   -34.945
19.4306     32.411   -35.386
19.7133     32.891   -35.844
20.0000     33.369   -36.332
20.2909     33.842   -36.848
20.5860     34.308   -37.360
20.8855     34.761   -37.768
21.1893     35.200   -38.036
21.4975     35.633   -38.254
21.8102     36.067   -38.498
22.1274     36.511   -38.790
22.4492     36.972   -39.093
22.7758     37.455   -39.354
23.1071     37.957   -39.649
23.4432     38.474   -40.020
23.7841     38.997   -40.585
24.1301     39.518   -41.503
24.4811     40.031   -42.633
24.8372     40.527   -43.748
25.1984     41.008   -44.739
25.5649     41.479   -45.528
25.9368     41.946   -46.210
26.3141     42.416   -46.912
26.6968     42.892   -47.705
27.0851     43.374   -48.637
27.4791     43.859   -49.677
27.8788     44.342   -50.741
28.2843     44.822   -51.738
28.6957     45.299   -52.673
29.1131     45.775   -53.607
29.5365     46.251   -54.576
29.9661     46.727   -55.636
30.4020     47.203   -56.714
30.8442     47.678   -57.777
31.2929     48.153   -58.857
31.7480     48.629   -59.991
32.2098     49.102   -61.259
32.6783     49.571   -62.668
33.1536     50.027   -63.933
33.6359     50.476   -64.848
34.1251     50.929   -65.327
34.6215     51.410   -65.729
35.1250     51.929   -66.392
35.6359     52.472   -67.492
36.1543     53.017   -68.851
36.6802     53.553   -70.298
37.2137     54.077   -71.686
37.7550     54.592   -72.998
38.3041     55.110   -74.367
38.8613     55.636   -76.014
39.4265     56.162   -77.775
40.0000     56.680   -79.447
40.5818     57.191   -80.887
41.1721     57.703   -82.242
41.7710     58.224   -83.700
42.3785     58.753   -85.424
42.9949     59.285   -87.443
43.6203     59.811   -89.672
44.2548     60.322   -91.969
44.8985     60.814   -94.176
45.5515     61.290   -96.192
46.2141     61.757   -98.044
46.8863     62.226   -99.827
47.5683     62.702  -101.629
48.2602     63.187  -103.526
48.9621     63.682  -105.540
49.6743     64.183  -107.648
50.3968     64.687  -109.836
51.1299     65.192  -112.086
51.8736     65.695  -114.384
52.6281     66.195  -116.746
53.3936     66.691  -119.191
54.1702     67.182  -121.731
54.9581     67.666  -124.349
55.7575     68.143  -127.045
56.5685     68.612  -129.824
57.3914     69.073  -132.658
58.2261     69.526  -135.526
59.0730     69.971  -138.447
59.9323     70.407  -141.447
60.8040     70.833  -144.529
61.6884     71.248  -147.680
62.5857     71.653  -150.900
63.4960     72.047  -154.187
64.4196     72.425  -157.534
65.3566     72.784  -160.939
66.3073     73.125  -164.393
67.2717     73.450  -167.882
68.2502     73.763  -171.383
69.2429     74.066  -174.893
70.2501     74.360  -178.426
71.2719     74.637   177.996
72.3086     74.890   174.389
73.3603     75.118   170.796
74.4274     75.324   167.236
75.5099     75.510   163.725
76.6083     75.682   160.256
77.7226     75.841   156.814
78.8531     75.986   153.403
80.0000     76.115   150.025
81.1636     76.228   146.704
82.3442     76.327   143.473
83.5419     76.413   140.325
84.7570     76.489   137.255
85.9899     76.555   134.268
87.2406     76.615   131.356
88.5096     76.667   128.515
89.7970     76.713   125.744
91.1031     76.756   123.036
92.4282     76.798   120.384
93.7726     76.836   117.785
95.1366     76.869   115.239
96.5204     76.900   112.735
97.9243     76.925   110.270
99.3486     76.946   107.852
100.794     76.961   105.483
102.260     76.972   103.167
103.747     76.980   100.916
105.256     76.987    98.739
106.787     76.996    96.612
108.340     77.009    94.501
109.916     77.019    92.406
111.515     77.026    90.334
113.137     77.027    88.293
114.783     77.026    86.301
116.452     77.026    84.351
118.146     77.027    82.409
119.865     77.028    80.461
121.608     77.022    78.513
123.377     77.005    76.595
125.171     76.981    74.751
126.992     76.954    72.991
128.839     76.930    71.296
130.713     76.911    69.639
132.615     76.896    67.981
134.543     76.880    66.311
136.500     76.857    64.653
138.486     76.828    63.046
140.500     76.798    61.515
142.544     76.771    60.058
144.617     76.751    58.655
146.721     76.740    57.268
148.855     76.734    55.868
151.020     76.729    54.443
153.217     76.720    53.005
155.445     76.709    51.576
157.706     76.697    50.163
160.000     76.682    48.760
162.327     76.666    47.381
164.688     76.649    46.033
167.084     76.634    44.714
169.514     76.623    43.421
171.980     76.615    42.123
174.481     76.607    40.798
177.019     76.595    39.461
179.594     76.578    38.121
182.206     76.554    36.797
184.856     76.529    35.518
187.545     76.505    34.272
190.273     76.483    33.045
193.041     76.461    31.843
195.849     76.443    30.658
198.697     76.430    29.466
201.587     76.419    28.229
204.520     76.402    26.927
207.494     76.371    25.603
210.512     76.322    24.338
213.574     76.263    23.210
216.681     76.210    22.224
219.833     76.174    21.303
223.030     76.155    20.362
226.274     76.147    19.339
229.565     76.139    18.222
232.905     76.121    17.078
236.292     76.098    15.960
239.729     76.073    14.876
243.216     76.048    13.807
246.754     76.021    12.740
250.343     75.990    11.688
253.984     75.958    10.673
257.678     75.928     9.703
261.426     75.909     8.761
265.229     75.905     7.765
269.087     75.901     6.645
273.001     75.888     5.446
276.972     75.859     4.222
281.000     75.813     3.064
285.088     75.764     2.058
289.234     75.729     1.142
293.441     75.713     0.216
297.709     75.709    -0.788
302.040     75.706    -1.899
306.433     75.701    -3.077
310.890     75.689    -4.346
315.412     75.659    -5.707
320.000     75.608    -7.082
324.655     75.536    -8.453
329.377     75.444    -9.743
334.168     75.349   -10.867
339.028     75.266   -11.909
343.959     75.192   -12.972
348.962     75.119   -14.097
354.038     75.026   -15.268
359.188     74.911   -16.364
364.412     74.786   -17.313
369.713     74.666   -18.149
375.090     74.557   -18.907
380.546     74.459   -19.636
386.081     74.369   -20.405
391.697     74.269   -21.199
397.394     74.157   -21.969
403.175     74.030   -22.671
409.039     73.887   -23.190
414.989     73.753   -23.430
421.025     73.655   -23.450
427.149     73.605   -23.391
433.362     73.607   -23.429
439.665     73.638   -23.790
446.060     73.658   -24.470
452.548     73.654   -25.217
459.131     73.646   -25.953
465.809     73.646   -26.764
472.584     73.652   -27.698
479.458     73.653   -28.856
486.432     73.616   -30.279
493.507     73.505   -31.711
500.686     73.335   -32.778
507.968     73.155   -33.358
515.357     72.995   -33.518
522.853     72.893   -33.353
530.458     72.876   -33.148
538.174     72.923   -33.223
546.002     73.013   -33.717
553.943     73.110   -34.759
562.001     73.150   -36.356
570.175     73.082   -38.230
578.469     72.891   -39.841
586.883     72.633   -40.677
595.419     72.397   -40.791
604.080     72.248   -40.512
612.866     72.212   -40.276
621.780     72.218   -40.590
630.824     72.189   -41.284
640.000     72.115   -41.881
649.309     72.017   -42.189
658.753     71.965   -42.143
668.335     71.993   -42.074
678.056     72.051   -42.429
687.919     72.098   -43.130
697.925     72.121   -44.001
708.077     72.112   -45.144
718.376     72.034   -46.543
728.825     71.843   -47.591
739.426     71.633   -47.771
750.181     71.514   -47.357
761.093     71.488   -46.858
772.163     71.507   -46.505
783.394     71.561   -46.199
794.789     71.663   -46.029
806.349     71.805   -46.176
818.078     71.980   -46.663
829.977     72.169   -47.678
842.050     72.302   -49.197
854.298     72.350   -50.661
866.724     72.354   -51.961
879.330     72.317   -53.153
892.120     72.264   -53.868
905.097     72.266   -54.236
918.262     72.332   -54.641
931.618     72.458   -55.159
945.169     72.631   -55.991
958.917     72.801   -57.291
972.864     72.967   -58.977
987.015     73.125   -60.953
1001.37     73.248   -63.036
1015.94     73.372   -65.133
1030.71     73.498   -67.509
1045.71     73.557   -70.166
1060.92     73.558   -72.867
1076.35     73.515   -75.656
1092.00     73.408   -78.384
1107.89     73.258   -80.902
1124.00     73.077   -83.270
1140.35     72.852   -85.355
1156.94     72.593   -87.023
1173.77     72.339   -88.034
1190.84     72.165   -88.359
1208.16     72.112   -88.396
1225.73     72.178   -88.472
1243.56     72.353   -89.040
1261.65     72.566   -90.480
1280.00     72.742   -92.767
1298.62     72.819   -95.678
1317.51     72.772   -98.471
1336.67     72.683  -100.796
1356.11     72.590  -103.054
1375.84     72.472  -105.147
1395.85     72.370  -107.007
1416.15     72.265  -108.931
1436.75     72.120  -110.672
1457.65     71.996  -112.044
1478.85     71.927  -113.263
1500.36     71.917  -114.599
1522.19     71.938  -116.253
1544.33     71.930  -118.151
1566.79     71.892  -120.133
1589.58     71.829  -122.035
1612.70     71.781  -123.731
1636.16     71.817  -125.558
1659.95     71.898  -128.060
1684.10     71.934  -131.341
1708.60     71.842  -134.998
1733.45     71.589  -138.223
1758.66     71.257  -140.288
1784.24     70.940  -141.238
1810.19     70.726  -141.460
1836.52     70.680  -141.425
1863.24     70.768  -141.814
1890.34     70.964  -142.917
1917.83     71.203  -144.762
1945.73     71.394  -147.293
1974.03     71.533  -150.239
2002.74     71.599  -153.467
2031.87     71.573  -156.773
2061.43     71.497  -159.823
2091.41     71.389  -162.547
2121.83     71.279  -164.944
2152.69     71.218  -166.997
2184.01     71.216  -168.881
2215.77     71.256  -170.964
2248.00     71.312  -173.503
2280.70     71.347  -176.485
2313.87     71.322  -179.841
2347.53     71.230   176.698
2381.68     71.083   173.623
2416.32     70.892   171.210
2451.46     70.687   169.475
2487.12     70.514   168.257
2523.30     70.420   167.345
2560.00     70.435   166.504
2597.24     70.542   165.287
2635.01     70.673   163.526
2673.34     70.765   161.300
2712.23     70.761   158.533
2751.68     70.629   155.531
2791.70     70.432   152.821
2832.31     70.255   150.514
2873.50     70.133   148.561
2915.30     70.099   146.906
2957.70     70.163   145.359
3000.72     70.277   143.628
3044.37     70.378   141.461
3088.65     70.412   138.984
3133.58     70.382   136.761
3179.16     70.386   134.501
3225.40     70.323   131.916
3272.31     70.199   129.793
3319.91     70.083   128.139
3368.20     70.006   126.673
3417.19     69.971   125.233
3466.89     69.961   123.569
3517.32     69.928   121.651
3568.48     69.864   119.867
3620.39     69.797   118.380
3673.05     69.736   117.116
3726.47     69.714   115.927
3780.67     69.735   114.460
3835.67     69.730   112.684
3891.46     69.682   110.885
3948.06     69.601   109.352
4005.49     69.517   108.355
4063.75     69.504   107.581
4122.86     69.558   106.416
4182.82     69.619   104.627
4243.66     69.643   102.222
4305.39     69.585    99.602
4368.01     69.444    97.306
4431.55     69.268    95.421
4496.01     69.086    93.735
4561.40     68.886    92.115
4627.75     68.663    90.520
4695.06     68.417    89.000
4763.35     68.157    87.788
4832.64     67.939    86.905
4902.93     67.789    85.941
4974.24     67.607    84.374
5046.60     67.316    83.212
5120.00     67.022    82.546
5194.47     66.736    81.947
5270.03     66.436    81.435
5346.68     66.101    81.187
5424.45     65.759    81.307
5503.35     65.432    81.966
5583.40     65.134    83.076
5664.61     64.856    84.375
5747.01     64.572    85.964
5830.60     64.303    87.954
5915.41     64.103    90.204
6001.45     64.005    92.485
6088.74     63.993    94.442
6177.30     64.016    95.931
6267.15     64.014    97.108
6358.31     63.975    98.038
6450.80     63.913    98.858
6544.62     63.825    99.620
6639.82     63.731   100.192
6736.40     63.608   100.822
6834.38     63.433   102.022
6933.79     63.300   104.022
7034.64     63.275   106.485
7136.96     63.353   108.972
7240.77     63.558   111.238
7346.09     63.877   112.814
7452.94     64.224   113.502
7561.35     64.520   113.552
7671.33     64.742   113.195
7782.91     64.865   112.836
7896.12     64.881   112.780
8010.97     64.832   113.094
8127.49     64.760   113.908
8245.71     64.709   115.000
8365.65     64.713   115.928
8487.33     64.771   116.497
8610.78     64.836   116.559
8736.03     64.879   116.276
8863.09     64.914   115.924
8992.01     64.920   115.434
9122.80     64.869   114.982
9255.50     64.787   114.913
9390.12     64.700   115.116
9526.70     64.613   115.210
9665.27     64.502   115.052
9805.86     64.345   114.635
9948.49     64.106   113.885
10093.2     63.726   113.268
10240.0     63.213   113.662
10388.9     62.657   115.569
10540.1     62.186   118.936
10693.4     61.936   123.245
10848.9     61.976   127.627
11006.7     62.264   131.105
11166.8     62.669   133.110
11329.2     63.053   133.636
11494.0     63.314   133.003
11661.2     63.420   131.756
11830.8     63.378   130.373
12002.9     63.218   129.176
12177.5     62.986   128.324
12354.6     62.702   127.788
12534.3     62.371   127.522
12716.6     61.988   127.413
12901.6     61.531   127.494
13089.2     60.996   127.841
13279.6     60.371   128.571
13472.8     59.671   130.141
13668.8     58.940   132.852
13867.6     58.216   136.780
14069.3     57.579   141.830
14273.9     57.104   147.415
14481.5     56.807   152.826
14692.2     56.645   157.492
14905.9     56.522   161.187
15122.7     56.350   164.236
15342.7     56.096   167.063
15565.8     55.780   169.963
15792.2     55.430   173.216
16021.9     55.096   176.961
16255.0     54.835  -178.946
16491.4     54.658  -174.623
16731.3     54.542  -170.186
16974.7     54.433  -165.952
17221.6     54.293  -161.807
17472.1     54.122  -157.225
17726.2     53.945  -152.156
17984.0     53.836  -146.887
18245.6     53.817  -141.695
18511.0     53.821  -137.049
18780.2     53.765  -133.147
19053.4     53.594  -129.607
19330.5     53.313  -125.825
19611.7     52.998  -121.342
19897.0     52.765  -116.084
20186.4     52.710  -110.290
20480.0     52.843  -104.547
20777.9     53.121   -99.618
21080.1     53.451   -95.918
21386.7     53.736   -93.556
21697.8     53.941   -92.375
22013.4     54.020   -91.887
22333.6     53.896   -91.627
22658.4     53.544   -91.201
22988.0     52.956   -90.125
23322.4     52.118   -87.862
23661.6     51.087   -83.768
24005.8     49.990   -77.362
24355.0     48.999   -68.717
24709.2     48.314   -58.522
25068.6     48.016   -47.839
25433.2     48.021   -37.627
25803.2     48.195   -28.438
26178.5     48.369   -20.553
26559.3     48.436   -13.809
26945.6     48.426    -7.676
27337.5     48.399    -1.923
27735.2     48.364     3.591
28138.6     48.287     9.207
28547.9     48.140    15.356
28963.1     47.930    22.402
29384.4     47.704    30.433
29811.8     47.576    39.185
30245.4     47.627    47.680
30685.3     47.839    54.968
31131.7     48.150    60.602
31584.5     48.446    64.163
32043.9     48.621    66.092
32510.0     48.626    67.560
32982.8     48.423    69.796
33462.6     48.024    73.999
33949.3     47.558    80.600
34443.1     47.199    89.357
34944.1     47.104    99.291
35452.4     47.331   108.772
35968.0     47.800   116.803
36491.2     48.401   122.899
37022.0     49.025   126.535
37560.5     49.546   127.707
38106.8     49.895   127.631
38661.1     50.045   126.967
39223.4     50.079   127.342
39793.9     50.010   128.699
