Freq[Hz]     dBSPL  Phase[Deg]
Freq[Hz]     dBSPL  Phase[Deg]
5.00000    -17.144   -12.254
5.07273    -16.790   -12.341
5.14651    -16.404   -12.434
5.22137    -15.973   -12.536
5.29732    -15.524   -12.643
5.37437    -15.054   -12.755
5.45254    -14.585   -12.868
5.53185    -14.115   -12.984
5.61231    -13.646   -13.101
5.69394    -13.176   -13.220
5.77676    -12.706   -13.341
5.86079    -12.236   -13.463
5.94604    -11.767   -13.587
6.03252    -11.297   -13.713
6.12027    -10.827   -13.841
6.20929    -10.357   -13.971
6.29961     -9.887   -14.103
6.39124     -9.417   -14.236
6.48420     -8.948   -14.372
6.57851     -8.478   -14.509
6.67420     -8.008   -14.649
6.77128     -7.538   -14.791
6.86977     -7.068   -14.934
6.96969     -6.597   -15.080
7.07107     -6.127   -15.228
7.17392     -5.657   -15.378
7.27827     -5.187   -15.531
7.38413     -4.717   -15.686
7.49154     -4.246   -15.842
7.60050     -3.776   -16.002
7.71105     -3.306   -16.163
7.82321     -2.835   -16.328
7.93701     -2.365   -16.494
8.05245     -1.894   -16.663
8.16958     -1.424   -16.835
8.28841     -0.953   -17.009
8.40896     -0.483   -17.185
8.53128     -0.012   -17.365
8.65537      0.459   -17.547
8.78126      0.929   -17.731
8.90899      1.400   -17.919
9.03857      1.871   -18.109
9.17004      2.342   -18.302
9.30342      2.813   -18.498
9.43874      3.284   -18.697
9.57603      3.755   -18.899
9.71532      4.227   -19.104
9.85663      4.698   -19.312
10.0000      5.169   -19.523
10.1455      5.641   -19.737
10.2930      6.112   -19.955
10.4427      6.584   -20.176
10.5946      7.055   -20.400
10.7487      7.527   -20.628
10.9051      7.999   -20.859
11.0637      8.471   -21.093
11.2246      8.943   -21.332
11.3879      9.415   -21.573
11.5535      9.887   -21.819
11.7216     10.359   -22.068
11.8921     10.832   -22.321
12.0650     11.304   -22.578
12.2405     11.777   -22.839
12.4186     12.249   -23.104
12.5992     12.722   -23.373
12.7825     13.195   -23.646
12.9684     13.668   -23.923
13.1570     14.141   -24.205
13.3484     14.614   -24.491
13.5426     15.088   -24.781
13.7395     15.561   -25.076
13.9394     16.035   -25.376
14.1421     16.509   -25.680
14.3478     16.983   -25.989
14.5565     17.457   -26.303
14.7683     17.931   -26.622
14.9831     18.405   -26.946
15.2010     18.880   -27.275
15.4221     19.355   -27.609
15.6464     19.829   -27.948
15.8740     20.304   -28.293
16.1049     20.780   -28.644
16.3392     21.255   -29.000
16.5768     21.731   -29.361
16.8179     22.206   -29.729
17.0626     22.682   -30.103
17.3107     23.159   -30.482
17.5625     23.635   -30.868
17.8180     24.112   -31.260
18.0771     24.589   -31.659
18.3401     25.066   -32.064
18.6068     25.543   -32.475
18.8775     26.021   -32.894
19.1521     26.498   -33.320
19.4306     26.976   -33.752
19.7133     27.452   -34.210
20.0000     27.922   -34.717
20.2909     28.379   -35.282
20.5860     28.819   -35.864
20.8855     29.246   -36.304
21.1893     29.666   -36.522
21.4975     30.088   -36.610
21.8102     30.527   -36.659
22.1274     30.985   -36.767
22.4492     31.465   -36.996
22.7758     31.963   -37.332
23.1071     32.471   -37.797
23.4432     32.985   -38.371
23.7841     33.496   -39.096
24.1301     33.999   -40.069
24.4811     34.494   -41.165
24.8372     34.978   -42.197
25.1984     35.456   -43.092
25.5649     35.931   -43.814
25.9368     36.406   -44.463
26.3141     36.883   -45.164
26.6968     37.360   -45.972
27.0851     37.839   -46.917
27.4791     38.317   -47.955
27.8788     38.795   -48.999
28.2843     39.274   -49.972
28.6957     39.753   -50.885
29.1131     40.232   -51.804
29.5365     40.712   -52.769
29.9661     41.193   -53.830
30.4020     41.672   -54.927
30.8442     42.148   -56.028
31.2929     42.619   -57.160
31.7480     43.084   -58.322
32.2098     43.544   -59.552
32.6783     44.005   -60.833
33.1536     44.474   -61.945
33.6359     44.955   -62.783
34.1251     45.449   -63.352
34.6215     45.955   -63.990
35.1250     46.468   -64.921
35.6359     46.987   -66.188
36.1543     47.510   -67.584
36.6802     48.035   -69.000
37.2137     48.558   -70.375
37.7550     49.076   -71.731
38.3041     49.589   -73.200
38.8613     50.095   -74.928
39.4265     50.601   -76.702
40.0000     51.109   -78.359
40.5818     51.621   -79.832
41.1721     52.133   -81.292
41.7710     52.643   -82.902
42.3785     53.147   -84.765
42.9949     53.643   -86.852
43.6203     54.131   -89.056
44.2548     54.609   -91.247
44.8985     55.082   -93.307
45.5515     55.550   -95.191
46.2141     56.018   -96.964
46.8863     56.488   -98.728
47.5683     56.961  -100.560
48.2602     57.437  -102.510
48.9621     57.916  -104.575
49.6743     58.396  -106.726
50.3968     58.875  -108.944
51.1299     59.353  -111.207
51.8736     59.826  -113.504
52.6281     60.294  -115.836
53.3936     60.757  -118.217
54.1702     61.214  -120.658
54.9581     61.666  -123.153
55.7575     62.113  -125.709
56.5685     62.554  -128.335
57.3914     62.989  -131.008
58.2261     63.418  -133.714
59.0730     63.838  -136.470
59.9323     64.248  -139.293
60.8040     64.646  -142.180
61.6884     65.034  -145.114
62.5857     65.412  -148.088
63.4960     65.780  -151.100
64.4196     66.135  -154.138
65.3566     66.476  -157.201
66.3073     66.804  -160.294
67.2717     67.123  -163.413
68.2502     67.434  -166.549
69.2429     67.739  -169.719
70.2501     68.034  -172.941
71.2719     68.311  -176.214
72.3086     68.566  -179.503
73.3603     68.801   177.247
74.4274     69.019   174.053
75.5099     69.225   170.917
76.6083     69.422   167.816
77.7226     69.610   164.721
78.8531     69.786   161.631
80.0000     69.950   158.550
81.1636     70.103   155.503
82.3442     70.245   152.507
83.5419     70.376   149.548
84.7570     70.495   146.621
85.9899     70.602   143.740
87.2406     70.697   140.916
88.5096     70.783   138.157
89.7970     70.862   135.466
91.1031     70.937   132.833
92.4282     71.009   130.238
93.7726     71.077   127.684
95.1366     71.139   125.169
96.5204     71.194   122.687
97.9243     71.243   120.242
99.3486     71.285   117.845
100.794     71.321   115.497
102.260     71.351   113.201
103.747     71.378   110.965
105.256     71.404   108.782
106.787     71.430   106.623
108.340     71.453   104.467
109.916     71.469   102.331
111.515     71.476   100.233
113.137     71.475    98.190
114.783     71.469    96.229
116.452     71.463    94.336
118.146     71.458    92.478
119.865     71.452    90.644
121.608     71.443    88.837
123.377     71.428    87.072
125.171     71.411    85.374
126.992     71.392    83.738
128.839     71.376    82.152
130.713     71.363    80.602
132.615     71.351    79.064
134.543     71.340    77.534
136.500     71.326    76.022
138.486     71.311    74.535
140.500     71.294    73.075
142.544     71.276    71.649
144.617     71.259    70.260
146.721     71.243    68.896
148.855     71.227    67.551
151.020     71.212    66.216
153.217     71.195    64.889
155.445     71.174    63.574
157.706     71.149    62.276
160.000     71.117    61.016
162.327     71.081    59.820
164.688     71.045    58.697
167.084     71.013    57.639
169.514     70.989    56.628
171.980     70.973    55.633
174.481     70.961    54.630
177.019     70.950    53.618
179.594     70.938    52.603
182.206     70.924    51.597
184.856     70.909    50.612
187.545     70.894    49.641
190.273     70.878    48.689
193.041     70.861    47.767
195.849     70.843    46.878
198.697     70.827    46.022
201.587     70.813    45.187
204.520     70.798    44.366
207.494     70.781    43.586
210.512     70.767    42.876
213.574     70.762    42.244
216.681     70.773    41.652
219.833     70.805    41.019
223.030     70.848    40.255
226.274     70.885    39.310
229.565     70.901    38.263
232.905     70.894    37.237
236.292     70.873    36.301
239.729     70.848    35.497
243.216     70.830    34.809
246.754     70.824    34.163
250.343     70.825    33.517
253.984     70.829    32.888
257.678     70.843    32.306
261.426     70.872    31.690
265.229     70.907    30.962
269.087     70.938    30.118
273.001     70.952    29.179
276.972     70.942    28.258
281.000     70.920    27.489
285.088     70.910    26.870
289.234     70.920    26.299
293.441     70.946    25.641
297.709     70.974    24.841
302.040     70.986    23.964
306.433     70.980    23.124
310.890     70.968    22.406
315.412     70.963    21.819
320.000     70.979    21.267
324.655     71.012    20.619
329.377     71.046    19.821
334.168     71.068    18.900
339.028     71.069    17.943
343.959     71.048    17.088
348.962     71.029    16.392
354.038     71.024    15.749
359.188     71.024    15.100
364.412     71.031    14.450
369.713     71.046    13.704
375.090     71.050    12.876
380.546     71.043    12.087
386.081     71.036    11.325
391.697     71.027    10.556
397.394     71.008     9.764
403.175     70.967     9.031
409.039     70.920     8.476
414.989     70.888     8.069
421.025     70.878     7.751
427.149     70.899     7.446
433.362     70.945     7.005
439.665     70.991     6.337
446.060     71.018     5.478
452.548     71.015     4.559
459.131     70.980     3.715
465.809     70.930     3.080
472.584     70.894     2.673
479.458     70.888     2.342
486.432     70.907     1.961
493.507     70.936     1.494
500.686     70.972     0.941
507.968     71.005     0.282
515.357     71.019    -0.415
522.853     71.023    -1.015
530.458     71.035    -1.511
538.174     71.061    -1.951
546.002     71.110    -2.431
553.943     71.172    -3.042
562.001     71.241    -3.765
570.175     71.313    -4.665
578.469     71.359    -5.756
586.883     71.375    -6.827
595.419     71.381    -7.802
604.080     71.372    -8.793
612.866     71.350    -9.746
621.780     71.326   -10.538
630.824     71.306   -11.207
640.000     71.302   -11.792
649.309     71.323   -12.377
658.753     71.347   -13.141
668.335     71.349   -14.046
678.056     71.334   -14.944
687.919     71.306   -15.695
697.925     71.300   -16.185
708.077     71.371   -16.743
718.376     71.454   -17.956
728.825     71.421   -19.424
739.426     71.347   -20.309
750.181     71.330   -20.883
761.093     71.351   -21.612
772.163     71.378   -22.455
783.394     71.400   -23.386
794.789     71.394   -24.437
806.349     71.362   -25.417
818.078     71.324   -26.306
829.977     71.283   -27.122
842.050     71.266   -27.768
854.298     71.290   -28.393
866.724     71.332   -29.132
879.330     71.387   -30.017
892.120     71.452   -31.148
905.097     71.493   -32.527
918.262     71.488   -33.991
931.618     71.448   -35.388
945.169     71.397   -36.604
958.917     71.353   -37.579
972.864     71.336   -38.524
987.015     71.337   -39.687
1001.37     71.326   -40.954
1015.94     71.297   -42.319
1030.71     71.241   -43.738
1045.71     71.170   -44.939
1060.92     71.113   -45.997
1076.35     71.057   -47.154
1092.00     70.962   -48.314
1107.89     70.837   -49.184
1124.00     70.742   -49.715
1140.35     70.704   -50.041
1156.94     70.740   -50.288
1173.77     70.847   -50.961
1190.84     70.934   -52.353
1208.16     70.948   -53.960
1225.73     70.922   -55.548
1243.56     70.866   -57.009
1261.65     70.811   -58.120
1280.00     70.801   -59.193
1298.62     70.796   -60.381
1317.51     70.802   -61.619
1336.67     70.804   -63.114
1356.11     70.753   -64.520
1375.84     70.707   -65.707
1395.85     70.677   -66.859
1416.15     70.639   -67.926
1436.75     70.616   -68.969
1457.65     70.590   -69.926
1478.85     70.590   -70.751
1500.36     70.635   -71.568
1522.19     70.730   -72.427
1544.33     70.907   -73.643
1566.79     71.096   -75.548
1589.58     71.250   -77.926
1612.70     71.356   -80.549
1636.16     71.398   -83.300
1659.95     71.423   -86.127
1684.10     71.415   -88.881
1708.60     71.379   -91.705
1733.45     71.320   -94.458
1758.66     71.213   -97.054
1784.24     71.063   -99.374
1810.19     70.920  -101.330
1836.52     70.807  -102.823
1863.24     70.749  -104.129
1890.34     70.767  -105.494
1917.83     70.871  -107.230
1945.73     71.011  -109.411
1974.03     71.135  -112.382
2002.74     71.185  -115.860
2031.87     71.129  -119.531
2061.43     70.978  -123.174
2091.41     70.769  -126.558
2121.83     70.528  -129.478
2152.69     70.309  -131.771
2184.01     70.131  -133.457
2215.77     69.975  -134.858
2248.00     69.878  -135.981
2280.70     69.860  -137.412
2313.87     69.902  -139.170
2347.53     69.972  -141.300
2381.68     70.048  -143.799
2416.32     70.103  -146.206
2451.46     70.110  -148.746
2487.12     70.107  -151.053
2523.30     70.122  -153.107
2560.00     70.139  -155.340
2597.24     70.182  -157.630
2635.01     70.218  -160.101
2673.34     70.219  -162.811
2712.23     70.185  -165.705
2751.68     70.103  -168.412
2791.70     70.030  -170.902
2832.31     69.988  -173.301
2873.50     70.001  -175.371
2915.30     70.094  -177.619
2957.70     70.227   179.974
3000.72     70.360   177.262
3044.37     70.399   174.028
3088.65     70.299   170.909
3133.58     70.132   168.770
3179.16     70.162   166.368
3225.40     70.038   163.335
3272.31     69.811   161.341
3319.91     69.624   160.591
3368.20     69.545   160.517
3417.19     69.594   160.483
3466.89     69.748   159.978
3517.32     69.955   158.717
3568.48     70.138   156.866
3620.39     70.261   154.817
3673.05     70.334   152.771
3726.47     70.389   151.110
3780.67     70.460   149.556
3835.67     70.578   147.815
3891.46     70.693   145.793
3948.06     70.745   143.436
4005.49     70.729   141.118
4063.75     70.659   139.391
4122.86     70.579   138.110
4182.82     70.542   137.152
4243.66     70.560   136.299
4305.39     70.602   135.329
4368.01     70.671   134.141
4431.55     70.749   132.847
4496.01     70.815   131.447
4561.40     70.878   129.854
4627.75     70.908   128.077
4695.06     70.867   126.355
4763.35     70.789   125.045
4832.64     70.719   124.219
4902.93     70.682   123.734
4974.24     70.710   123.366
5046.60     70.781   122.791
5120.00     70.852   121.751
5194.47     70.880   120.415
5270.03     70.855   119.031
5346.68     70.794   117.805
5424.45     70.723   116.863
5503.35     70.662   116.093
5583.40     70.612   115.413
5664.61     70.559   114.795
5747.01     70.506   114.187
5830.60     70.443   113.742
5915.41     70.382   113.444
6001.45     70.330   113.226
6088.74     70.279   113.040
6177.30     70.219   112.849
6267.15     70.150   112.771
6358.31     70.085   112.873
6450.80     70.060   113.061
6544.62     70.068   113.125
6639.82     70.060   112.986
6736.40     70.033   112.908
6834.38     70.002   112.788
6933.79     69.927   112.673
7034.64     69.843   112.941
7136.96     69.799   113.189
7240.77     69.745   113.409
7346.09     69.716   114.030
7452.94     69.781   114.410
7561.35     69.808   114.382
7671.33     69.770   114.777
7782.91     69.798   115.250
7896.12     69.776   115.095
8010.97     69.628   115.171
8127.49     69.526   115.726
8245.71     69.459   115.722
8365.65     69.276   115.569
8487.33     69.050   116.027
8610.78     68.825   116.683
8736.03     68.546   117.662
8863.09     68.265   119.445
8992.01     68.062   121.648
9122.80     67.920   124.134
9255.50     67.897   126.917
9390.12     67.995   129.169
9526.70     68.066   130.921
9665.27     68.152   132.940
9805.86     68.260   134.362
9948.49     68.229   135.925
10093.2     68.244   138.450
10240.0     68.347   140.788
10388.9     68.476   143.451
10540.1     68.757   145.942
10693.4     69.064   147.695
10848.9     69.401   149.232
11006.7     69.742   149.831
11166.8     69.997   150.208
11329.2     70.269   150.333
11494.0     70.459   149.825
11661.2     70.556   149.564
11830.8     70.632   149.338
12002.9     70.632   149.141
12177.5     70.576   149.530
12354.6     70.558   150.399
12534.3     70.588   151.199
12716.6     70.648   151.847
12901.6     70.696   151.787
13089.2     70.576   151.685
13279.6     70.448   152.764
13472.8     70.418   153.742
13668.8     70.371   154.735
13867.6     70.367   155.693
14069.3     70.310   156.247
14273.9     70.213   157.273
14481.5     70.115   158.260
14692.2     69.973   159.578
14905.9     69.866   161.281
15122.7     69.751   163.098
15342.7     69.676   165.259
15565.8     69.635   167.461
15792.2     69.636   169.750
16021.9     69.680   172.040
16255.0     69.772   174.074
16491.4     69.878   176.162
16731.3     70.005   177.911
16974.7     70.110   179.672
17221.6     70.212  -178.645
17472.1     70.254  -176.966
17726.2     70.286  -175.263
17984.0     70.226  -173.276
18245.6     70.163  -171.296
18511.0     70.065  -168.812
18780.2     69.963  -166.189
19053.4     69.906  -163.271
19330.5     69.916  -160.054
19611.7     69.998  -156.914
19897.0     70.183  -153.937
20186.4     70.410  -151.265
20480.0     70.677  -148.881
20777.9     70.918  -146.571
21080.1     71.180  -144.427
21386.7     71.438  -141.972
21697.8     71.707  -139.828
22013.4     72.069  -138.084
22333.6     72.381  -136.857
22658.4     72.620  -136.768
22988.0     72.685  -137.317
23322.4     72.320  -137.758
