Freq[Hz]     dBSPL  Phase[Deg]
Freq[Hz]     dBSPL  Phase[Deg]
5.00000    -17.657   -14.650
5.07273    -17.301   -14.735
5.14651    -16.914   -14.828
5.22137    -16.481   -14.929
5.29732    -16.030   -15.034
5.37437    -15.558   -15.144
5.45254    -15.086   -15.256
5.53185    -14.614   -15.370
5.61231    -14.142   -15.484
5.69394    -13.670   -15.600
5.77676    -13.198   -15.718
5.86079    -12.726   -15.837
5.94604    -12.254   -15.957
6.03252    -11.782   -16.079
6.12027    -11.310   -16.203
6.20929    -10.838   -16.328
6.29961    -10.365   -16.455
6.39124     -9.893   -16.584
6.48420     -9.421   -16.714
6.57851     -8.949   -16.846
6.67420     -8.476   -16.980
6.77128     -8.004   -17.115
6.86977     -7.531   -17.253
6.96969     -7.059   -17.393
7.07107     -6.586   -17.534
7.17392     -6.114   -17.678
7.27827     -5.641   -17.824
7.38413     -5.168   -17.972
7.49154     -4.695   -18.123
7.60050     -4.222   -18.276
7.71105     -3.749   -18.431
7.82321     -3.276   -18.589
7.93701     -2.803   -18.750
8.05245     -2.330   -18.912
8.16958     -1.857   -19.078
8.28841     -1.384   -19.246
8.40896     -0.910   -19.417
8.53128     -0.437   -19.590
8.65537      0.036   -19.766
8.78126      0.510   -19.945
8.90899      0.983   -20.127
9.03857      1.457   -20.311
9.17004      1.930   -20.498
9.30342      2.404   -20.688
9.43874      2.877   -20.881
9.57603      3.351   -21.076
9.71532      3.825   -21.275
9.85663      4.298   -21.476
10.0000      4.772   -21.680
10.1455      5.246   -21.887
10.2930      5.720   -22.097
10.4427      6.194   -22.311
10.5946      6.668   -22.527
10.7487      7.142   -22.747
10.9051      7.617   -22.970
11.0637      8.091   -23.196
11.2246      8.565   -23.426
11.3879      9.040   -23.659
11.5535      9.515   -23.896
11.7216      9.990   -24.136
11.8921     10.465   -24.381
12.0650     10.940   -24.629
12.2405     11.415   -24.881
12.4186     11.890   -25.137
12.5992     12.365   -25.397
12.7825     12.841   -25.661
12.9684     13.316   -25.929
13.1570     13.792   -26.202
13.3484     14.268   -26.478
13.5426     14.744   -26.759
13.7395     15.220   -27.045
13.9394     15.696   -27.334
14.1421     16.172   -27.628
14.3478     16.649   -27.927
14.5565     17.125   -28.230
14.7683     17.602   -28.539
14.9831     18.079   -28.851
15.2010     18.556   -29.169
15.4221     19.033   -29.492
15.6464     19.511   -29.820
15.8740     19.988   -30.154
16.1049     20.466   -30.493
16.3392     20.944   -30.837
16.5768     21.422   -31.187
16.8179     21.900   -31.542
17.0626     22.379   -31.904
17.3107     22.858   -32.271
17.5625     23.337   -32.644
17.8180     23.816   -33.024
18.0771     24.295   -33.409
18.3401     24.775   -33.801
18.6068     25.255   -34.200
18.8775     25.735   -34.605
19.1521     26.215   -35.016
19.4306     26.696   -35.435
19.7133     27.175   -35.880
20.0000     27.650   -36.378
20.2909     28.116   -36.941
20.5860     28.566   -37.534
20.8855     29.001   -37.994
21.1893     29.421   -38.239
21.4975     29.834   -38.352
21.8102     30.254   -38.408
22.1274     30.691   -38.485
22.4492     31.158   -38.634
22.7758     31.657   -38.847
23.1071     32.179   -39.196
23.4432     32.714   -39.697
23.7841     33.248   -40.412
24.1301     33.769   -41.448
24.4811     34.272   -42.647
24.8372     34.757   -43.764
25.1984     35.232   -44.714
25.5649     35.703   -45.450
25.9368     36.176   -46.092
26.3141     36.655   -46.790
26.6968     37.138   -47.615
27.0851     37.623   -48.605
27.4791     38.106   -49.707
27.8788     38.586   -50.818
28.2843     39.061   -51.840
28.6957     39.536   -52.776
29.1131     40.013   -53.698
29.5365     40.495   -54.667
29.9661     40.980   -55.752
30.4020     41.464   -56.899
30.8442     41.941   -58.065
31.2929     42.410   -59.261
31.7480     42.869   -60.467
32.2098     43.323   -61.726
32.6783     43.781   -63.033
33.1536     44.246   -64.175
33.6359     44.722   -65.042
34.1251     45.210   -65.631
34.6215     45.711   -66.268
35.1250     46.223   -67.183
35.6359     46.742   -68.438
36.1543     47.266   -69.833
36.6802     47.794   -71.261
37.2137     48.320   -72.663
37.7550     48.841   -74.067
38.3041     49.355   -75.586
38.8613     49.865   -77.361
39.4265     50.371   -79.179
40.0000     50.876   -80.859
40.5818     51.383   -82.322
41.1721     51.893   -83.754
41.7710     52.406   -85.329
42.3785     52.920   -87.177
42.9949     53.431   -89.290
43.6203     53.933   -91.566
44.2548     54.424   -93.875
44.8985     54.901   -96.084
45.5515     55.365   -98.114
46.2141     55.822  -100.002
46.8863     56.279  -101.840
47.5683     56.741  -103.710
48.2602     57.209  -105.675
48.9621     57.682  -107.751
49.6743     58.160  -109.916
50.3968     58.640  -112.158
51.1299     59.118  -114.457
51.8736     59.593  -116.794
52.6281     60.061  -119.174
53.3936     60.522  -121.608
54.1702     60.978  -124.102
54.9581     61.428  -126.651
55.7575     61.873  -129.262
56.5685     62.313  -131.948
57.3914     62.746  -134.684
58.2261     63.171  -137.451
59.0730     63.587  -140.259
59.9323     63.993  -143.130
60.8040     64.388  -146.060
61.6884     64.772  -149.035
62.5857     65.147  -152.049
63.4960     65.513  -155.103
64.4196     65.866  -158.192
65.3566     66.205  -161.317
66.3073     66.530  -164.479
67.2717     66.842  -167.670
68.2502     67.146  -170.866
69.2429     67.445  -174.070
70.2501     67.737  -177.300
71.2719     68.016   179.424
72.3086     68.277   176.118
73.3603     68.517   172.824
74.4274     68.739   169.558
75.5099     68.945   166.329
76.6083     69.141   163.127
77.7226     69.326   159.934
78.8531     69.498   156.750
80.0000     69.658   153.582
81.1636     69.805   150.457
82.3442     69.940   147.402
83.5419     70.067   144.395
84.7570     70.183   141.420
85.9899     70.290   138.481
87.2406     70.387   135.580
88.5096     70.472   132.727
89.7970     70.548   129.938
91.1031     70.619   127.210
92.4282     70.687   124.529
93.7726     70.750   121.890
95.1366     70.807   119.292
96.5204     70.857   116.729
97.9243     70.901   114.208
99.3486     70.939   111.737
100.794     70.971   109.314
102.260     71.000   106.935
103.747     71.023   104.605
105.256     71.044   102.328
106.787     71.063   100.086
108.340     71.079    97.866
109.916     71.091    95.677
111.515     71.098    93.526
113.137     71.099    91.420
114.783     71.097    89.376
116.452     71.096    87.378
118.146     71.097    85.385
119.865     71.094    83.393
121.608     71.084    81.409
123.377     71.064    79.461
125.171     71.036    77.595
126.992     71.007    75.818
128.839     70.980    74.105
130.713     70.959    72.423
132.615     70.941    70.733
134.543     70.919    69.029
136.500     70.890    67.340
138.486     70.854    65.700
140.500     70.814    64.133
142.544     70.774    62.649
144.617     70.739    61.243
146.721     70.714    59.882
148.855     70.696    58.527
151.020     70.683    57.150
153.217     70.671    55.744
155.445     70.655    54.318
157.706     70.633    52.891
160.000     70.604    51.486
162.327     70.572    50.131
164.688     70.541    48.821
167.084     70.511    47.539
169.514     70.485    46.275
171.980     70.458    45.015
174.481     70.429    43.756
177.019     70.396    42.526
179.594     70.363    41.339
182.206     70.331    40.187
184.856     70.303    39.056
187.545     70.279    37.919
190.273     70.253    36.768
193.041     70.224    35.623
195.849     70.193    34.502
198.697     70.161    33.406
201.587     70.131    32.313
204.520     70.097    31.205
207.494     70.056    30.112
210.512     70.006    29.082
213.574     69.954    28.159
216.681     69.909    27.343
219.833     69.878    26.587
223.030     69.865    25.816
226.274     69.865    24.941
229.565     69.864    23.952
232.905     69.855    22.910
236.292     69.841    21.856
239.729     69.819    20.808
243.216     69.792    19.775
246.754     69.758    18.755
250.343     69.716    17.747
253.984     69.664    16.789
257.678     69.605    15.955
261.426     69.555    15.261
265.229     69.529    14.625
269.087     69.528    13.912
273.001     69.536    13.025
276.972     69.531    11.983
281.000     69.503    10.905
285.088     69.456     9.912
289.234     69.402     9.049
293.441     69.362     8.280
297.709     69.339     7.493
302.040     69.318     6.627
306.433     69.291     5.737
310.890     69.257     4.864
315.412     69.218     4.055
320.000     69.186     3.320
324.655     69.170     2.549
329.377     69.162     1.675
334.168     69.154     0.691
339.028     69.135    -0.415
343.959     69.094    -1.586
348.962     69.029    -2.695
354.038     68.953    -3.714
359.188     68.868    -4.661
364.412     68.779    -5.493
369.713     68.703    -6.278
375.090     68.630    -7.096
380.546     68.549    -7.877
386.081     68.474    -8.604
391.697     68.400    -9.332
397.394     68.319   -10.096
403.175     68.226   -10.888
409.039     68.109   -11.610
414.989     67.980   -12.136
421.025     67.860   -12.412
427.149     67.769   -12.500
433.362     67.722   -12.572
439.665     67.707   -12.840
446.060     67.695   -13.403
452.548     67.657   -14.134
459.131     67.591   -14.854
465.809     67.502   -15.489
472.584     67.397   -15.897
479.458     67.305   -16.000
486.432     67.251   -15.953
493.507     67.232   -15.863
500.686     67.259   -15.794
507.968     67.335   -16.010
515.357     67.412   -16.668
522.853     67.455   -17.625
530.458     67.466   -18.739
538.174     67.440   -19.890
546.002     67.406   -20.977
553.943     67.380   -22.165
562.001     67.325   -23.508
570.175     67.221   -24.855
578.469     67.061   -26.039
586.883     66.853   -26.758
595.419     66.645   -26.981
604.080     66.482   -26.853
612.866     66.394   -26.578
621.780     66.361   -26.602
630.824     66.330   -26.947
640.000     66.292   -27.327
649.309     66.261   -27.682
658.753     66.257   -27.984
668.335     66.285   -28.305
678.056     66.328   -28.773
687.919     66.374   -29.412
697.925     66.417   -30.188
708.077     66.469   -31.212
718.376     66.500   -32.921
728.825     66.399   -35.010
739.426     66.210   -36.611
750.181     66.014   -37.798
761.093     65.800   -38.730
772.163     65.566   -39.085
783.394     65.373   -38.748
794.789     65.287   -38.119
806.349     65.313   -37.703
818.078     65.410   -37.806
829.977     65.527   -38.471
842.050     65.614   -39.549
854.298     65.673   -40.795
866.724     65.719   -42.255
879.330     65.725   -44.085
892.120     65.657   -46.032
905.097     65.497   -47.805
918.262     65.274   -48.880
931.618     65.062   -49.114
945.169     64.913   -48.897
958.917     64.890   -48.363
972.864     64.997   -48.416
987.015     65.077   -49.511
1001.37     65.082   -50.871
1015.94     65.039   -52.494
1030.71     64.917   -54.214
1045.71     64.780   -55.674
1060.92     64.677   -57.277
1076.35     64.547   -59.349
1092.00     64.283   -61.941
1107.89     63.806   -64.308
1124.00     63.152   -65.391
1140.35     62.398   -64.773
1156.94     61.711   -61.996
1173.77     61.339   -57.984
1190.84     61.296   -54.487
1208.16     61.465   -52.225
1225.73     61.692   -51.925
1243.56     61.749   -53.404
1261.65     61.556   -55.185
1280.00     61.155   -56.129
1298.62     60.660   -55.042
1317.51     60.343   -52.222
1336.67     60.292   -49.516
1356.11     60.426   -47.678
1375.84     60.678   -47.193
1395.85     60.860   -48.885
1416.15     60.850   -51.754
1436.75     60.624   -54.966
1457.65     60.178   -57.837
1478.85     59.601   -60.100
1500.36     58.937   -61.504
1522.19     58.251   -61.721
1544.33     57.771   -60.785
1566.79     57.633   -60.504
1589.58     57.698   -61.769
1612.70     57.811   -65.503
1636.16     57.651   -71.601
1659.95     57.052   -78.447
1684.10     56.091   -83.712
1708.60     55.029   -86.935
1733.45     54.218   -88.391
1758.66     54.101   -90.003
1784.24     54.535   -94.663
1810.19     55.033  -103.180
1836.52     55.236  -112.865
1863.24     55.119  -121.041
1890.34     54.782  -127.564
1917.83     54.502  -131.742
1945.73     54.648  -133.579
1974.03     55.198  -135.763
2002.74     55.936  -138.732
2031.87     56.654  -142.727
2061.43     57.118  -146.997
2091.41     57.328  -149.461
2121.83     57.599  -150.987
2152.69     58.009  -152.021
2184.01     58.540  -153.481
2215.77     58.972  -155.489
2248.00     59.345  -157.151
2280.70     59.741  -157.784
2313.87     60.213  -157.423
2347.53     60.858  -157.188
2381.68     61.582  -157.289
2416.32     62.136  -157.926
2451.46     62.614  -158.639
2487.12     63.087  -158.449
2523.30     63.622  -158.154
2560.00     64.177  -158.237
2597.24     64.665  -159.038
2635.01     65.016  -160.375
2673.34     65.203  -162.059
2712.23     65.247  -163.760
2751.68     65.155  -164.490
2791.70     65.076  -163.935
2832.31     64.912  -162.043
2873.50     64.633  -157.806
2915.30     64.545  -152.300
2957.70     64.563  -147.177
3000.72     64.589  -142.556
3044.37     64.739  -138.608
3088.65     64.831  -136.265
3133.58     64.711  -133.803
3179.16     64.688  -130.149
3225.40     64.685  -127.765
3272.31     64.453  -125.976
3319.91     63.995  -122.907
3368.20     63.577  -118.714
3417.19     63.138  -114.262
3466.89     62.716  -109.215
3517.32     62.311  -103.912
3568.48     61.860   -98.190
3620.39     61.391   -92.758
3673.05     60.689   -86.589
3726.47     59.917   -79.020
3780.67     59.188   -71.207
3835.67     58.276   -60.409
3891.46     57.757   -47.355
3948.06     57.388   -34.683
4005.49     57.216   -18.975
4063.75     57.761    -4.591
4122.86     58.408     6.650
4182.82     59.286    16.234
4243.66     60.067    21.212
4305.39     60.103    25.051
4368.01     59.838    31.900
4431.55     59.263    41.449
4496.01     58.749    55.943
4561.40     59.009    72.142
4627.75     59.915    86.911
4695.06     61.301    98.636
4763.35     62.507   105.454
4832.64     63.244   108.597
4902.93     63.498   109.964
4974.24     63.073   111.986
5046.60     62.260   117.773
5120.00     61.249   128.082
5194.47     60.419   141.719
5270.03     60.063   156.700
5346.68     60.250   170.824
5424.45     60.515  -177.633
5503.35     60.537  -168.452
5583.40     60.237  -158.184
5664.61     59.740  -146.619
5747.01     59.277  -131.625
5830.60     59.163  -115.148
5915.41     59.359   -99.268
6001.45     59.833   -85.548
6088.74     60.188   -73.736
6177.30     60.383   -64.031
6267.15     60.359   -53.652
6358.31     60.152   -42.609
6450.80     59.947   -29.287
6544.62     59.915   -14.950
6639.82     59.988    -1.612
6736.40     60.051    11.296
6834.38     59.913    23.363
6933.79     59.654    35.069
7034.64     59.228    48.578
7136.96     58.602    62.280
7240.77     57.966    77.629
7346.09     57.059    96.418
7452.94     56.121   117.231
7561.35     55.281   142.795
7671.33     55.129   172.627
7782.91     56.220  -160.275
7896.12     57.663  -137.848
8010.97     58.881  -119.300
8127.49     59.709  -106.628
8245.71     59.979   -95.943
8365.65     59.771   -83.258
8487.33     59.215   -68.027
8610.78     58.714   -49.697
8736.03     58.447   -30.279
8863.09     58.323   -10.969
8992.01     58.156     8.604
9122.80     57.962    28.389
9255.50     57.783    50.022
9390.12     57.798    72.583
9526.70     57.997    94.592
9665.27     58.215   116.018
9805.86     58.343   137.127
9948.49     58.255   157.950
10093.2     57.839  -178.801
10240.0     57.710  -153.781
10388.9     57.951  -130.445
10540.1     58.308  -108.825
10693.4     58.718   -90.469
10848.9     58.672   -75.372
11006.7     57.904   -58.251
11166.8     56.653   -36.149
11329.2     55.250    -7.390
11494.0     54.152    24.990
11661.2     53.654    58.896
11830.8     53.935    91.385
12002.9     54.322   120.014
12177.5     54.400   145.789
12354.6     53.986   170.676
12534.3     53.176  -159.217
12716.6     52.717  -126.191
12901.6     52.353   -92.016
13089.2     52.509   -54.382
13279.6     53.165   -19.373
13472.8     53.703    13.731
13668.8     54.250    44.583
13867.6     54.617    74.658
14069.3     54.960   105.407
14273.9     55.255   134.373
14481.5     55.281   163.634
14692.2     55.143  -167.265
14905.9     54.498  -139.157
15122.7     53.316  -106.759
15342.7     52.067   -69.777
15565.8     51.144   -30.233
15792.2     50.556    10.442
16021.9     50.568    51.817
16255.0     50.822    91.544
16491.4     51.101   130.370
16731.3     51.408   168.569
16974.7     51.501  -154.666
17221.6     51.247  -115.806
17472.1     50.978   -74.722
17726.2     50.742   -31.456
17984.0     50.743    13.810
18245.6     51.115    58.349
18511.0     51.777   100.328
18780.2     52.189   139.551
19053.4     52.299   176.825
19330.5     51.857  -143.599
19611.7     50.942  -100.320
19897.0     50.163   -53.948
20186.4     49.507    -6.265
20480.0     49.122    43.152
20777.9     49.369    92.128
21080.1     49.658   138.346
21386.7     49.860  -175.104
21697.8     49.881  -127.743
22013.4     49.641   -81.892
22333.6     49.175   -33.575
22658.4     48.436    19.058
22988.0     47.671    71.632
23322.4     47.004   128.895
