Freq[Hz]     dBSPL  Phase[Deg]
Freq[Hz]     dBSPL  Phase[Deg]
5.00000    -18.437   -12.435
5.07273    -18.079   -12.528
5.14651    -17.690   -12.630
5.22137    -17.253   -12.744
5.29732    -16.798   -12.865
5.37437    -16.322   -12.993
5.45254    -15.845   -13.122
5.53185    -15.369   -13.253
5.61231    -14.893   -13.386
5.69394    -14.417   -13.520
5.77676    -13.940   -13.656
5.86079    -13.464   -13.794
5.94604    -12.988   -13.934
6.03252    -12.511   -14.076
6.12027    -12.035   -14.220
6.20929    -11.559   -14.365
6.29961    -11.082   -14.512
6.39124    -10.606   -14.662
6.48420    -10.130   -14.813
6.57851     -9.653   -14.967
6.67420     -9.177   -15.122
6.77128     -8.700   -15.280
6.86977     -8.223   -15.440
6.96969     -7.747   -15.602
7.07107     -7.270   -15.767
7.17392     -6.793   -15.934
7.27827     -6.316   -16.103
7.38413     -5.839   -16.275
7.49154     -5.362   -16.450
7.60050     -4.885   -16.628
7.71105     -4.408   -16.808
7.82321     -3.931   -16.990
7.93701     -3.454   -17.176
8.05245     -2.976   -17.365
8.16958     -2.499   -17.556
8.28841     -2.022   -17.751
8.40896     -1.544   -17.948
8.53128     -1.067   -18.149
8.65537     -0.589   -18.353
8.78126     -0.112   -18.560
8.90899      0.366   -18.770
9.03857      0.844   -18.983
9.17004      1.321   -19.200
9.30342      1.799   -19.419
9.43874      2.277   -19.642
9.57603      2.755   -19.869
9.71532      3.232   -20.098
9.85663      3.710   -20.331
10.0000      4.188   -20.567
10.1455      4.666   -20.807
10.2930      5.145   -21.051
10.4427      5.623   -21.297
10.5946      6.101   -21.548
10.7487      6.579   -21.802
10.9051      7.058   -22.060
11.0637      7.536   -22.322
11.2246      8.015   -22.588
11.3879      8.494   -22.858
11.5535      8.973   -23.131
11.7216      9.452   -23.410
11.8921      9.931   -23.692
12.0650     10.410   -23.979
12.2405     10.889   -24.270
12.4186     11.369   -24.566
12.5992     11.848   -24.867
12.7825     12.328   -25.172
12.9684     12.808   -25.481
13.1570     13.288   -25.796
13.3484     13.768   -26.116
13.5426     14.248   -26.440
13.7395     14.728   -26.769
13.9394     15.208   -27.104
14.1421     15.689   -27.443
14.3478     16.169   -27.788
14.5565     16.650   -28.138
14.7683     17.131   -28.494
14.9831     17.612   -28.855
15.2010     18.093   -29.222
15.4221     18.575   -29.594
15.6464     19.056   -29.972
15.8740     19.538   -30.357
16.1049     20.020   -30.747
16.3392     20.502   -31.144
16.5768     20.984   -31.547
16.8179     21.467   -31.957
17.0626     21.950   -32.373
17.3107     22.433   -32.796
17.5625     22.916   -33.225
17.8180     23.399   -33.662
18.0771     23.883   -34.106
18.3401     24.366   -34.556
18.6068     24.850   -35.015
18.8775     25.335   -35.480
19.1521     25.819   -35.953
19.4306     26.304   -36.434
19.7133     26.789   -36.939
20.0000     27.273   -37.486
20.2909     27.753   -38.077
20.5860     28.225   -38.666
20.8855     28.680   -39.103
21.1893     29.117   -39.329
21.4975     29.544   -39.473
21.8102     29.975   -39.652
22.1274     30.421   -39.929
22.4492     30.894   -40.288
22.7758     31.395   -40.663
23.1071     31.915   -41.091
23.4432     32.445   -41.573
23.7841     32.973   -42.225
24.1301     33.494   -43.226
24.4811     34.002   -44.437
24.8372     34.494   -45.622
25.1984     34.974   -46.674
25.5649     35.446   -47.520
25.9368     35.915   -48.263
26.3141     36.389   -49.036
26.6968     36.866   -49.909
27.0851     37.348   -50.922
27.4791     37.830   -52.038
27.8788     38.311   -53.169
28.2843     38.790   -54.222
28.6957     39.267   -55.208
29.1131     39.745   -56.194
29.5365     40.225   -57.230
29.9661     40.707   -58.377
30.4020     41.187   -59.564
30.8442     41.663   -60.747
31.2929     42.136   -61.949
31.7480     42.606   -63.185
32.2098     43.072   -64.531
32.6783     43.535   -66.001
33.1536     43.990   -67.326
33.6359     44.441   -68.323
34.1251     44.896   -68.922
34.6215     45.377   -69.458
35.1250     45.891   -70.234
35.6359     46.426   -71.405
36.1543     46.968   -72.809
36.6802     47.508   -74.317
37.2137     48.037   -75.818
37.7550     48.558   -77.304
38.3041     49.074   -78.879
38.8613     49.591   -80.716
39.4265     50.103   -82.622
40.0000     50.607   -84.399
40.5818     51.107   -85.933
41.1721     51.610   -87.393
41.7710     52.120   -88.966
42.3785     52.639   -90.810
42.9949     53.159   -92.942
43.6203     53.673   -95.275
44.2548     54.174   -97.677
44.8985     54.656  -100.004
45.5515     55.121  -102.153
46.2141     55.575  -104.148
46.8863     56.026  -106.078
47.5683     56.483  -108.020
48.2602     56.947  -110.047
48.9621     57.418  -112.181
49.6743     57.894  -114.394
50.3968     58.373  -116.676
51.1299     58.852  -119.012
51.8736     59.329  -121.385
52.6281     59.802  -123.814
53.3936     60.270  -126.321
54.1702     60.732  -128.913
54.9581     61.185  -131.576
55.7575     61.630  -134.300
56.5685     62.067  -137.089
57.3914     62.494  -139.915
58.2261     62.913  -142.752
59.0730     63.325  -145.618
59.9323     63.730  -148.541
60.8040     64.127  -151.524
61.6884     64.514  -154.556
62.5857     64.894  -157.639
63.4960     65.265  -160.781
64.4196     65.623  -163.976
65.3566     65.963  -167.219
66.3073     66.287  -170.504
67.2717     66.597  -173.809
68.2502     66.896  -177.106
69.2429     67.191   179.609
70.2501     67.482   176.320
71.2719     67.762   172.993
72.3086     68.026   169.630
73.3603     68.270   166.264
74.4274     68.496   162.904
75.5099     68.706   159.562
76.6083     68.903   156.236
77.7226     69.088   152.915
78.8531     69.260   149.611
80.0000     69.418   146.327
81.1636     69.561   143.092
82.3442     69.693   139.939
83.5419     69.818   136.848
84.7570     69.934   133.795
85.9899     70.044   130.779
87.2406     70.145   127.793
88.5096     70.237   124.837
89.7970     70.319   121.924
91.1031     70.394   119.059
92.4282     70.465   116.237
93.7726     70.530   113.458
95.1366     70.587   110.723
96.5204     70.639   108.026
97.9243     70.684   105.368
99.3486     70.723   102.756
100.794     70.757   100.190
102.260     70.787    97.665
103.747     70.811    95.187
105.256     70.831    92.764
106.787     70.849    90.386
108.340     70.866    88.034
109.916     70.880    85.711
111.515     70.887    83.424
113.137     70.890    81.183
114.783     70.891    79.004
116.452     70.895    76.868
118.146     70.903    74.730
119.865     70.911    72.571
121.608     70.912    70.387
123.377     70.898    68.212
125.171     70.872    66.103
126.992     70.838    64.088
128.839     70.804    62.157
130.713     70.775    60.289
132.615     70.749    58.445
134.543     70.725    56.607
136.500     70.697    54.790
138.486     70.666    53.012
140.500     70.634    51.289
142.544     70.603    49.624
144.617     70.576    48.013
146.721     70.556    46.429
148.855     70.543    44.839
151.020     70.531    43.224
153.217     70.518    41.581
155.445     70.498    39.928
157.706     70.471    38.293
160.000     70.437    36.700
162.327     70.400    35.183
164.688     70.368    33.743
167.084     70.345    32.342
169.514     70.333    30.943
171.980     70.326    29.508
174.481     70.320    28.012
177.019     70.306    26.480
179.594     70.281    24.955
182.206     70.249    23.478
184.856     70.215    22.080
187.545     70.187    20.745
190.273     70.168    19.430
193.041     70.154    18.116
195.849     70.147    16.793
198.697     70.144    15.437
201.587     70.144    14.019
204.520     70.139    12.527
207.494     70.124    10.985
210.512     70.093     9.442
213.574     70.047     7.956
216.681     69.992     6.558
219.833     69.932     5.248
223.030     69.874     4.043
226.274     69.827     2.929
229.565     69.794     1.860
232.905     69.777     0.832
236.292     69.782    -0.192
239.729     69.807    -1.323
243.216     69.837    -2.635
246.754     69.855    -4.099
250.343     69.850    -5.641
253.984     69.822    -7.159
257.678     69.777    -8.561
261.426     69.733    -9.810
265.229     69.710   -10.987
269.087     69.705   -12.240
273.001     69.703   -13.600
276.972     69.691   -15.025
281.000     69.666   -16.425
285.088     69.639   -17.707
289.234     69.625   -18.913
293.441     69.634   -20.151
297.709     69.654   -21.532
302.040     69.663   -23.078
306.433     69.653   -24.657
310.890     69.632   -26.188
315.412     69.609   -27.680
320.000     69.596   -29.168
324.655     69.589   -30.773
329.377     69.572   -32.504
334.168     69.539   -34.267
339.028     69.493   -36.037
343.959     69.437   -37.804
348.962     69.370   -39.580
354.038     69.280   -41.367
359.188     69.165   -43.049
364.412     69.039   -44.544
369.713     68.923   -45.864
375.090     68.828   -47.094
380.546     68.754   -48.359
386.081     68.689   -49.694
391.697     68.618   -51.105
397.394     68.539   -52.576
403.175     68.452   -54.063
409.039     68.349   -55.589
414.989     68.221   -57.106
421.025     68.063   -58.425
427.149     67.897   -59.388
433.362     67.766   -60.007
439.665     67.699   -60.488
446.060     67.694   -61.124
452.548     67.715   -62.074
459.131     67.730   -63.278
465.809     67.736   -64.646
472.584     67.723   -66.121
479.458     67.688   -67.543
486.432     67.655   -68.867
493.507     67.632   -70.233
500.686     67.612   -71.652
507.968     67.602   -73.152
515.357     67.581   -74.895
522.853     67.523   -76.758
530.458     67.437   -78.503
538.174     67.342   -80.122
546.002     67.268   -81.507
553.943     67.277   -82.759
562.001     67.377   -84.486
570.175     67.483   -87.019
578.469     67.503   -90.182
586.883     67.392   -93.541
595.419     67.164   -96.477
604.080     66.872   -98.542
612.866     66.612   -99.758
621.780     66.478  -100.633
630.824     66.445  -101.797
640.000     66.432  -103.574
649.309     66.392  -105.867
658.753     66.289  -108.258
668.335     66.136  -110.400
678.056     65.994  -112.147
687.919     65.926  -113.632
697.925     65.951  -115.294
708.077     66.054  -117.735
718.376     66.120  -121.426
728.825     65.979  -125.644
739.426     65.705  -129.383
750.181     65.382  -132.770
761.093     64.993  -135.803
772.163     64.574  -138.354
783.394     64.142  -140.295
794.789     63.730  -141.388
806.349     63.405  -141.821
818.078     63.176  -141.877
829.977     63.049  -141.746
842.050     63.046  -142.268
854.298     63.066  -143.964
866.724     63.029  -146.362
879.330     62.945  -149.322
892.120     62.750  -152.717
905.097     62.383  -155.603
918.262     61.909  -157.223
931.618     61.442  -157.560
945.169     61.088  -157.312
958.917     60.945  -157.114
972.864     60.971  -157.579
987.015     61.019  -158.883
1001.37     61.082  -160.538
1015.94     61.095  -162.428
1030.71     61.000  -164.341
1045.71     60.928  -166.004
1060.92     60.891  -168.039
1076.35     60.778  -170.679
1092.00     60.562  -172.750
1107.89     60.363  -173.722
1124.00     60.268  -174.451
1140.35     60.255  -175.018
1156.94     60.420  -175.982
1173.77     60.618  -178.515
1190.84     60.599   178.236
1208.16     60.457   175.474
1225.73     60.225   173.057
1243.56     59.903   171.804
1261.65     59.748   171.589
1280.00     59.767   171.058
1298.62     59.914   170.276
1317.51     60.237   168.352
1336.67     60.506   164.868
1356.11     60.660   161.281
1375.84     60.771   157.094
1395.85     60.761   152.871
1416.15     60.685   149.082
1436.75     60.586   145.073
1457.65     60.426   141.343
1478.85     60.239   138.018
1500.36     60.025   135.086
1522.19     59.852   132.738
1544.33     59.820   129.912
1566.79     59.836   126.570
1589.58     59.840   122.507
1612.70     59.810   117.965
1636.16     59.718   113.524
1659.95     59.528   108.688
1684.10     59.301   104.283
1708.60     59.060    99.900
1733.45     58.809    95.210
1758.66     58.506    90.571
1784.24     58.192    86.023
1810.19     57.909    81.245
1836.52     57.754    76.340
1863.24     57.647    70.743
1890.34     57.503    64.109
1917.83     57.248    55.627
1945.73     56.719    46.775
1974.03     55.763    37.271
2002.74     54.403    27.742
2031.87     52.623    19.744
2061.43     50.555    14.098
2091.41     48.290    10.505
2121.83     46.382    11.795
2152.69     45.072    15.057
2184.01     44.394    17.281
2215.77     44.116    16.556
2248.00     43.674    11.217
2280.70     42.475     1.049
2313.87     40.274   -10.524
2347.53     36.813   -22.838
2381.68     30.836   -40.123
2416.32     14.257   -49.442
2451.46     25.783   162.315
2487.12     32.669   176.075
2523.30     37.651   179.186
2560.00     42.565   177.849
2597.24     46.219   170.767
2635.01     48.694   159.708
2673.34     50.501   146.902
2712.23     51.676   136.385
2751.68     52.488   126.596
2791.70     52.751   119.145
2832.31     52.771   113.821
2873.50     52.691   107.205
2915.30     52.296   100.480
2957.70     51.728    94.184
3000.72     51.307    87.409
3044.37     50.994    81.725
3088.65     50.859    76.615
3133.58     50.784    73.497
3179.16     51.509    72.036
3225.40     52.491    64.793
3272.31     53.168    55.225
3319.91     53.560    44.269
3368.20     53.599    33.752
3417.19     53.375    25.000
3466.89     53.060    17.386
3517.32     52.714    11.255
3568.48     52.454     6.001
3620.39     52.348     0.365
3673.05     52.273    -4.523
3726.47     52.177   -10.198
3780.67     51.982   -15.042
3835.67     52.040   -19.292
3891.46     52.104   -25.226
3948.06     52.205   -31.225
4005.49     52.459   -38.733
4063.75     52.756   -48.905
4122.86     52.959   -61.545
4182.82     53.010   -77.208
4243.66     52.623   -94.501
4305.39     51.900  -112.688
4368.01     50.524  -128.883
4431.55     48.493  -139.430
4496.01     45.981  -142.416
4561.40     43.052  -138.050
4627.75     40.601  -128.613
4695.06     40.154  -113.227
4763.35     41.125  -104.458
4832.64     42.988  -107.660
4902.93     44.243  -119.737
4974.24     44.892  -133.102
5046.60     45.089  -146.211
5120.00     44.645  -156.231
5194.47     44.126  -162.640
5270.03     43.810  -168.200
5346.68     43.093  -172.070
5424.45     42.894  -173.963
5503.35     42.729  -176.811
5583.40     42.552  -177.784
5664.61     42.765   179.241
5747.01     42.723   175.564
5830.60     42.566   168.974
5915.41     41.859   161.049
6001.45     40.878   154.424
6088.74     40.269   149.411
6177.30     39.888   145.277
6267.15     40.475   140.219
6358.31     41.754   135.177
6450.80     42.843   126.329
6544.62     43.870   114.164
6639.82     44.465   100.723
6736.40     44.382    81.468
6834.38     43.579    61.589
6933.79     42.273    42.844
7034.64     40.388    28.177
7136.96     38.909    21.344
7240.77     38.285    15.783
7346.09     38.416    11.651
7452.94     39.122     6.445
7561.35     39.739    -0.151
7671.33     40.175    -7.730
7782.91     40.136   -16.542
7896.12     39.769   -21.071
8010.97     39.349   -24.893
8127.49     38.689   -32.649
8245.71     38.057   -38.125
8365.65     38.077   -44.974
8487.33     38.655   -58.224
8610.78     39.327   -74.601
8736.03     40.013   -95.275
8863.09     40.687  -120.697
8992.01     41.010  -147.165
9122.80     40.963  -173.562
9255.50     40.749   165.660
9390.12     40.196   149.382
9526.70     39.417   133.347
9665.27     38.857   118.354
9805.86     38.615    99.171
9948.49     38.877    73.412
10093.2     39.576    44.588
10240.0     40.426    14.248
10388.9     41.351   -16.611
10540.1     41.886   -47.308
10693.4     42.052   -75.640
10848.9     41.897  -101.003
11006.7     41.370  -122.827
11166.8     40.849  -141.086
11329.2     40.345  -159.938
11494.0     39.584  -176.370
11661.2     38.975   167.844
11830.8     38.082   152.459
12002.9     37.047   142.614
12177.5     36.426   136.404
12354.6     36.346   130.807
12534.3     37.226   125.017
12716.6     38.818   115.036
12901.6     40.245    98.923
13089.2     41.022    78.931
13279.6     41.080    58.989
13472.8     40.560    42.804
13668.8     39.695    29.637
13867.6     39.164    19.601
14069.3     39.039     8.598
14273.9     39.201    -3.079
14481.5     39.488   -18.700
14692.2     39.466   -33.088
14905.9     39.251   -46.889
15122.7     39.145   -58.239
15342.7     39.375   -68.896
15565.8     39.824   -81.171
15792.2     40.261   -96.352
16021.9     40.805  -112.889
16255.0     41.005  -133.041
16491.4     41.026  -152.202
16731.3     40.989  -171.474
16974.7     40.713   169.046
17221.6     40.140   149.379
17472.1     39.496   128.785
17726.2     38.446   101.704
17984.0     37.089    63.300
18245.6     35.246     8.471
18511.0     33.586   -57.378
18780.2     31.619  -119.581
19053.4     29.515  -156.956
19330.5     27.896  -175.066
19611.7     27.017  -176.828
19897.0     26.910  -178.656
20186.4     28.578   158.583
20480.0     30.987   111.181
20777.9     33.648    43.715
21080.1     35.664   -34.571
21386.7     37.019  -110.650
21697.8     37.591   175.126
22013.4     37.579   112.088
22333.6     37.628    58.828
22658.4     37.847    17.179
22988.0     38.153   -19.199
23322.4     38.604   -53.956
