Freq[Hz]     dBSPL  Phase[Deg]
Freq[Hz]     dBSPL  Phase[Deg]
5.00000    -17.222   -12.354
5.07273    -16.867   -12.440
5.14651    -16.481   -12.533
5.22137    -16.050   -12.635
5.29732    -15.601   -12.741
5.37437    -15.131   -12.853
5.45254    -14.661   -12.967
5.53185    -14.191   -13.082
5.61231    -13.721   -13.199
5.69394    -13.251   -13.318
5.77676    -12.781   -13.439
5.86079    -12.311   -13.561
5.94604    -11.841   -13.685
6.03252    -11.370   -13.811
6.12027    -10.900   -13.938
6.20929    -10.430   -14.068
6.29961     -9.960   -14.199
6.39124     -9.490   -14.333
6.48420     -9.019   -14.468
6.57851     -8.549   -14.606
6.67420     -8.079   -14.745
6.77128     -7.608   -14.887
6.86977     -7.138   -15.030
6.96969     -6.667   -15.176
7.07107     -6.197   -15.324
7.17392     -5.726   -15.474
7.27827     -5.256   -15.626
7.38413     -4.785   -15.780
7.49154     -4.315   -15.937
7.60050     -3.844   -16.096
7.71105     -3.373   -16.258
7.82321     -2.902   -16.422
7.93701     -2.432   -16.588
8.05245     -1.961   -16.757
8.16958     -1.490   -16.928
8.28841     -1.019   -17.102
8.40896     -0.548   -17.278
8.53128     -0.077   -17.457
8.65537      0.394   -17.639
8.78126      0.865   -17.824
8.90899      1.336   -18.011
9.03857      1.808   -18.201
9.17004      2.279   -18.394
9.30342      2.750   -18.589
9.43874      3.222   -18.788
9.57603      3.693   -18.990
9.71532      4.165   -19.195
9.85663      4.637   -19.402
10.0000      5.108   -19.613
10.1455      5.580   -19.827
10.2930      6.052   -20.045
10.4427      6.524   -20.265
10.5946      6.996   -20.489
10.7487      7.468   -20.717
10.9051      7.940   -20.948
11.0637      8.412   -21.182
11.2246      8.885   -21.420
11.3879      9.357   -21.661
11.5535      9.830   -21.906
11.7216     10.302   -22.155
11.8921     10.775   -22.408
12.0650     11.248   -22.665
12.2405     11.721   -22.925
12.4186     12.194   -23.190
12.5992     12.667   -23.459
12.7825     13.140   -23.731
12.9684     13.614   -24.008
13.1570     14.087   -24.290
13.3484     14.561   -24.575
13.5426     15.034   -24.865
13.7395     15.508   -25.160
13.9394     15.982   -25.459
14.1421     16.456   -25.763
14.3478     16.931   -26.072
14.5565     17.405   -26.385
14.7683     17.880   -26.704
14.9831     18.354   -27.027
15.2010     18.829   -27.356
15.4221     19.304   -27.690
15.6464     19.780   -28.029
15.8740     20.255   -28.373
16.1049     20.731   -28.723
16.3392     21.206   -29.079
16.5768     21.682   -29.440
16.8179     22.159   -29.807
17.0626     22.635   -30.180
17.3107     23.111   -30.560
17.5625     23.588   -30.945
17.8180     24.065   -31.337
18.0771     24.542   -31.735
18.3401     25.020   -32.139
18.6068     25.498   -32.551
18.8775     25.976   -32.969
19.1521     26.454   -33.394
19.4306     26.932   -33.826
19.7133     27.409   -34.280
20.0000     27.880   -34.773
20.2909     28.341   -35.313
20.5860     28.787   -35.865
20.8855     29.221   -36.301
21.1893     29.648   -36.560
21.4975     30.075   -36.721
21.8102     30.515   -36.859
22.1274     30.971   -37.036
22.4492     31.444   -37.284
22.7758     31.934   -37.582
23.1071     32.437   -37.978
23.4432     32.948   -38.480
23.7841     33.461   -39.151
24.1301     33.970   -40.097
24.4811     34.472   -41.191
24.8372     34.962   -42.239
25.1984     35.444   -43.159
25.5649     35.919   -43.902
25.9368     36.392   -44.562
26.3141     36.867   -45.262
26.6968     37.345   -46.064
27.0851     37.826   -47.002
27.4791     38.308   -48.040
27.8788     38.789   -49.091
28.2843     39.270   -50.078
28.6957     39.749   -51.009
29.1131     40.228   -51.943
29.5365     40.706   -52.917
29.9661     41.185   -53.978
30.4020     41.663   -55.064
30.8442     42.139   -56.146
31.2929     42.613   -57.258
31.7480     43.083   -58.418
32.2098     43.550   -59.674
32.6783     44.014   -61.011
33.1536     44.479   -62.182
33.6359     44.950   -63.050
34.1251     45.432   -63.591
34.6215     45.932   -64.162
35.1250     46.448   -65.030
35.6359     46.975   -66.277
36.1543     47.503   -67.695
36.6802     48.028   -69.143
37.2137     48.548   -70.528
37.7550     49.062   -71.860
38.3041     49.574   -73.284
38.8613     50.086   -74.986
39.4265     50.598   -76.766
40.0000     51.109   -78.449
40.5818     51.619   -79.938
41.1721     52.129   -81.391
41.7710     52.640   -82.978
42.3785     53.148   -84.822
42.9949     53.651   -86.911
43.6203     54.144   -89.142
44.2548     54.625   -91.376
44.8985     55.097   -93.481
45.5515     55.562   -95.400
46.2141     56.025   -97.189
46.8863     56.490   -98.953
47.5683     56.959  -100.774
48.2602     57.433  -102.709
48.9621     57.912  -104.761
49.6743     58.392  -106.902
50.3968     58.872  -109.112
51.1299     59.350  -111.368
51.8736     59.824  -113.659
52.6281     60.294  -115.989
53.3936     60.758  -118.373
54.1702     61.216  -120.820
54.9581     61.668  -123.324
55.7575     62.115  -125.889
56.5685     62.555  -128.523
57.3914     62.990  -131.198
58.2261     63.417  -133.904
59.0730     63.836  -136.656
59.9323     64.245  -139.475
60.8040     64.643  -142.357
61.6884     65.030  -145.286
62.5857     65.408  -148.257
63.4960     65.777  -151.266
64.4196     66.133  -154.304
65.3566     66.474  -157.369
66.3073     66.803  -160.465
67.2717     67.122  -163.587
68.2502     67.434  -166.728
69.2429     67.740  -169.902
70.2501     68.036  -173.125
71.2719     68.314  -176.401
72.3086     68.570  -179.694
73.3603     68.805   177.048
74.4274     69.023   173.843
75.5099     69.228   170.695
76.6083     69.425   167.581
77.7226     69.612   164.472
78.8531     69.788   161.367
80.0000     69.951   158.269
81.1636     70.101   155.201
82.3442     70.239   152.186
83.5419     70.365   149.218
84.7570     70.479   146.297
85.9899     70.582   143.436
87.2406     70.675   140.639
88.5096     70.760   137.909
89.7970     70.839   135.244
91.1031     70.914   132.629
92.4282     70.988   130.050
93.7726     71.057   127.509
95.1366     71.121   125.005
96.5204     71.178   122.529
97.9243     71.229   120.087
99.3486     71.272   117.688
100.794     71.309   115.337
102.260     71.339   113.042
103.747     71.366   110.813
105.256     71.393   108.644
106.787     71.421   106.501
108.340     71.448   104.355
109.916     71.469   102.220
111.515     71.482   100.113
113.137     71.485    98.051
114.783     71.481    96.059
116.452     71.476    94.135
118.146     71.471    92.251
119.865     71.464    90.396
121.608     71.453    88.575
123.377     71.437    86.805
125.171     71.419    85.104
126.992     71.400    83.462
128.839     71.385    81.867
130.713     71.372    80.302
132.615     71.361    78.746
134.543     71.348    77.195
136.500     71.332    75.666
138.486     71.312    74.173
140.500     71.292    72.723
142.544     71.273    71.316
144.617     71.256    69.944
146.721     71.241    68.595
148.855     71.226    67.263
151.020     71.212    65.942
153.217     71.195    64.636
155.445     71.178    63.348
157.706     71.159    62.071
160.000     71.135    60.809
162.327     71.106    59.589
164.688     71.075    58.430
167.084     71.045    57.339
169.514     71.023    56.307
171.980     71.008    55.298
174.481     70.999    54.280
177.019     70.991    53.248
179.594     70.981    52.199
182.206     70.967    51.152
184.856     70.950    50.131
187.545     70.931    49.135
190.273     70.911    48.174
193.041     70.892    47.257
195.849     70.874    46.375
198.697     70.860    45.519
201.587     70.849    44.666
204.520     70.836    43.808
207.494     70.818    42.992
210.512     70.799    42.261
213.574     70.790    41.630
216.681     70.800    41.045
219.833     70.833    40.397
223.030     70.875    39.596
226.274     70.907    38.618
229.565     70.917    37.547
232.905     70.901    36.525
236.292     70.872    35.632
239.729     70.844    34.896
243.216     70.828    34.278
246.754     70.829    33.690
250.343     70.840    33.082
253.984     70.856    32.458
257.678     70.880    31.830
261.426     70.915    31.143
265.229     70.951    30.345
269.087     70.978    29.454
273.001     70.989    28.508
276.972     70.980    27.598
281.000     70.961    26.834
285.088     70.955    26.221
289.234     70.969    25.650
293.441     71.002    24.998
297.709     71.040    24.207
302.040     71.068    23.310
306.433     71.080    22.387
310.890     71.079    21.512
315.412     71.071    20.741
320.000     71.069    20.047
324.655     71.077    19.342
329.377     71.087    18.593
334.168     71.099    17.791
339.028     71.105    16.949
343.959     71.100    16.142
348.962     71.097    15.402
354.038     71.099    14.663
359.188     71.098    13.913
364.412     71.096    13.187
369.713     71.095    12.429
375.090     71.088    11.659
380.546     71.080    10.942
386.081     71.077    10.231
391.697     71.076     9.501
397.394     71.067     8.739
403.175     71.039     8.017
409.039     71.007     7.467
414.989     70.994     7.030
421.025     71.003     6.610
427.149     71.032     6.156
433.362     71.077     5.568
439.665     71.115     4.802
446.060     71.134     3.939
452.548     71.138     3.066
459.131     71.125     2.203
465.809     71.098     1.411
472.584     71.072     0.707
479.458     71.045     0.036
486.432     71.011    -0.566
493.507     70.978    -1.015
500.686     70.968    -1.317
507.968     70.989    -1.608
515.357     71.028    -1.959
522.853     71.084    -2.365
530.458     71.154    -2.885
538.174     71.228    -3.547
546.002     71.303    -4.382
553.943     71.367    -5.382
562.001     71.415    -6.460
570.175     71.445    -7.606
578.469     71.443    -8.738
586.883     71.424    -9.714
595.419     71.408   -10.565
604.080     71.387   -11.413
612.866     71.363   -12.238
621.780     71.344   -12.910
630.824     71.338   -13.455
640.000     71.357   -13.952
649.309     71.406   -14.492
658.753     71.464   -15.275
668.335     71.501   -16.315
678.056     71.501   -17.450
687.919     71.468   -18.438
697.925     71.444   -19.112
708.077     71.483   -19.778
718.376     71.537   -20.959
728.825     71.490   -22.263
739.426     71.420   -22.935
750.181     71.430   -23.337
761.093     71.488   -24.026
772.163     71.547   -24.974
783.394     71.595   -26.093
794.789     71.610   -27.411
806.349     71.583   -28.730
818.078     71.529   -29.936
829.977     71.459   -30.973
842.050     71.409   -31.698
854.298     71.412   -32.266
866.724     71.457   -32.909
879.330     71.527   -33.717
892.120     71.612   -34.851
905.097     71.666   -36.362
918.262     71.652   -37.983
931.618     71.595   -39.465
945.169     71.539   -40.693
958.917     71.503   -41.641
972.864     71.505   -42.592
987.015     71.524   -43.804
1001.37     71.526   -45.130
1015.94     71.509   -46.577
1030.71     71.466   -48.155
1045.71     71.400   -49.588
1060.92     71.335   -50.823
1076.35     71.275   -52.035
1092.00     71.180   -53.217
1107.89     71.068   -54.104
1124.00     70.997   -54.734
1140.35     70.972   -55.356
1156.94     71.000   -55.977
1173.77     71.080   -56.936
1190.84     71.132   -58.430
1208.16     71.128   -59.979
1225.73     71.103   -61.550
1243.56     71.046   -63.148
1261.65     70.966   -64.476
1280.00     70.908   -65.660
1298.62     70.858   -66.773
1317.51     70.842   -67.810
1336.67     70.851   -69.048
1356.11     70.833   -70.267
1375.84     70.823   -71.427
1395.85     70.806   -72.582
1416.15     70.777   -73.534
1436.75     70.788   -74.482
1457.65     70.813   -75.515
1478.85     70.865   -76.507
1500.36     70.956   -77.626
1522.19     71.076   -78.941
1544.33     71.250   -80.503
1566.79     71.425   -82.559
1589.58     71.575   -85.110
1612.70     71.669   -87.926
1636.16     71.682   -90.849
1659.95     71.657   -93.801
1684.10     71.577   -96.473
1708.60     71.475   -98.984
1733.45     71.375  -101.311
1758.66     71.255  -103.246
1784.24     71.150  -104.872
1810.19     71.087  -106.315
1836.52     71.073  -107.493
1863.24     71.128  -108.678
1890.34     71.228  -110.282
1917.83     71.383  -112.462
1945.73     71.537  -115.051
1974.03     71.636  -118.303
2002.74     71.657  -121.953
2031.87     71.552  -125.443
2061.43     71.376  -128.602
2091.41     71.183  -131.253
2121.83     70.987  -133.370
2152.69     70.851  -135.054
2184.01     70.777  -136.360
2215.77     70.754  -137.830
2248.00     70.746  -139.629
2280.70     70.756  -141.622
2313.87     70.836  -143.872
2347.53     70.897  -146.362
2381.68     70.928  -148.689
2416.32     70.962  -150.622
2451.46     70.986  -152.503
2487.12     71.011  -154.273
2523.30     71.092  -156.000
2560.00     71.219  -158.138
2597.24     71.350  -160.637
2635.01     71.458  -163.364
2673.34     71.517  -166.467
2712.23     71.483  -169.716
2751.68     71.393  -172.693
2791.70     71.303  -175.393
2832.31     71.235  -177.781
2873.50     71.221  -179.755
2915.30     71.297   178.250
2957.70     71.405   175.944
3000.72     71.500   173.324
3044.37     71.514   170.239
3088.65     71.385   167.111
3133.58     71.186   165.175
3179.16     71.187   163.238
3225.40     71.052   160.855
3272.31     70.873   159.525
3319.91     70.751   159.011
3368.20     70.749   158.715
3417.19     70.848   157.976
3466.89     70.987   156.503
3517.32     71.098   154.529
3568.48     71.125   152.416
3620.39     71.100   150.649
3673.05     71.071   149.394
3726.47     71.071   148.367
3780.67     71.153   147.220
3835.67     71.243   145.680
3891.46     71.300   143.803
3948.06     71.308   141.980
4005.49     71.280   140.461
4063.75     71.253   139.262
4122.86     71.252   138.142
4182.82     71.250   136.907
4243.66     71.235   135.615
4305.39     71.209   134.385
4368.01     71.195   133.266
4431.55     71.212   132.112
4496.01     71.242   130.707
4561.40     71.231   128.971
4627.75     71.144   127.214
4695.06     70.986   125.879
4763.35     70.812   125.116
4832.64     70.672   124.866
4902.93     70.600   124.855
4974.24     70.590   124.778
5046.60     70.612   124.545
5120.00     70.633   124.129
5194.47     70.628   123.653
5270.03     70.619   123.161
5346.68     70.590   122.593
5424.45     70.529   122.137
5503.35     70.467   121.827
5583.40     70.406   121.660
5664.61     70.348   121.568
5747.01     70.282   121.505
5830.60     70.209   121.708
5915.41     70.179   122.129
6001.45     70.187   122.487
6088.74     70.206   122.720
6177.30     70.229   122.884
6267.15     70.255   123.066
6358.31     70.286   123.252
6450.80     70.326   123.450
6544.62     70.372   123.618
6639.82     70.428   123.730
6736.40     70.485   123.617
6834.38     70.507   123.427
6933.79     70.522   123.347
7034.64     70.541   123.078
7136.96     70.488   122.754
7240.77     70.418   122.942
7346.09     70.390   123.056
7452.94     70.315   123.015
7561.35     70.234   123.464
7671.33     70.199   123.877
7782.91     70.117   124.102
7896.12     69.989   124.724
8010.97     69.857   125.532
8127.49     69.709   126.529
8245.71     69.577   127.838
8365.65     69.465   129.091
8487.33     69.321   130.587
8610.78     69.211   132.656
8736.03     69.174   134.830
8863.09     69.163   137.081
8992.01     69.227   139.540
9122.80     69.393   141.779
9255.50     69.610   143.444
9390.12     69.824   144.507
9526.70     70.011   145.265
9665.27     70.155   145.769
9805.86     70.248   146.335
9948.49     70.310   147.116
10093.2     70.333   148.333
10240.0     70.428   150.115
10388.9     70.605   151.664
10540.1     70.797   153.093
10693.4     71.076   154.249
10848.9     71.341   154.541
11006.7     71.552   154.426
11166.8     71.705   153.826
11329.2     71.761   153.034
11494.0     71.718   152.175
11661.2     71.560   151.831
11830.8     71.354   152.135
12002.9     71.096   153.047
12177.5     70.831   155.052
12354.6     70.702   157.662
12534.3     70.665   160.179
12716.6     70.773   162.499
12901.6     70.897   163.431
13089.2     70.841   164.381
13279.6     70.807   166.003
13472.8     70.800   167.520
13668.8     70.806   169.129
13867.6     70.840   170.471
14069.3     70.812   171.693
14273.9     70.778   173.162
14481.5     70.706   174.585
14692.2     70.611   176.385
14905.9     70.519   178.371
15122.7     70.417  -179.495
15342.7     70.345  -177.082
15565.8     70.287  -174.551
15792.2     70.258  -171.860
16021.9     70.279  -168.957
16255.0     70.331  -166.078
16491.4     70.456  -163.143
16731.3     70.585  -160.493
16974.7     70.731  -157.977
17221.6     70.850  -155.579
17472.1     70.943  -153.026
17726.2     71.014  -150.429
17984.0     71.077  -147.536
18245.6     71.149  -144.691
18511.0     71.247  -141.650
18780.2     71.365  -138.737
19053.4     71.536  -135.906
19330.5     71.742  -133.271
19611.7     71.988  -130.931
19897.0     72.264  -128.921
20186.4     72.524  -127.135
20480.0     72.780  -125.604
20777.9     73.023  -123.891
21080.1     73.231  -122.162
21386.7     73.473  -120.412
21697.8     73.711  -118.713
22013.4     73.954  -117.461
22333.6     74.170  -116.605
22658.4     74.270  -116.437
22988.0     74.186  -116.795
23322.4     73.723  -116.663
