Freq[Hz]     dBSPL  Phase[Deg]
Freq[Hz]     dBSPL  Phase[Deg]
5.00000    -17.154   -12.315
5.07273    -16.800   -12.401
5.14651    -16.414   -12.494
5.22137    -15.983   -12.596
5.29732    -15.534   -12.702
5.37437    -15.064   -12.814
5.45254    -14.595   -12.927
5.53185    -14.125   -13.042
5.61231    -13.655   -13.158
5.69394    -13.186   -13.277
5.77676    -12.716   -13.397
5.86079    -12.246   -13.518
5.94604    -11.776   -13.642
6.03252    -11.306   -13.767
6.12027    -10.837   -13.895
6.20929    -10.367   -14.024
6.29961     -9.897   -14.155
6.39124     -9.427   -14.288
6.48420     -8.957   -14.423
6.57851     -8.487   -14.560
6.67420     -8.017   -14.699
6.77128     -7.547   -14.840
6.86977     -7.077   -14.983
6.96969     -6.607   -15.128
7.07107     -6.137   -15.275
7.17392     -5.666   -15.425
7.27827     -5.196   -15.576
7.38413     -4.726   -15.730
7.49154     -4.256   -15.886
7.60050     -3.785   -16.045
7.71105     -3.315   -16.206
7.82321     -2.844   -16.369
7.93701     -2.374   -16.535
8.05245     -1.903   -16.703
8.16958     -1.433   -16.874
8.28841     -0.962   -17.047
8.40896     -0.492   -17.223
8.53128     -0.021   -17.401
8.65537      0.450   -17.583
8.78126      0.921   -17.766
8.90899      1.392   -17.953
9.03857      1.863   -18.142
9.17004      2.333   -18.334
9.30342      2.805   -18.530
9.43874      3.276   -18.728
9.57603      3.747   -18.929
9.71532      4.218   -19.133
9.85663      4.689   -19.340
10.0000      5.161   -19.550
10.1455      5.632   -19.763
10.2930      6.104   -19.980
10.4427      6.575   -20.200
10.5946      7.047   -20.423
10.7487      7.519   -20.649
10.9051      7.991   -20.879
11.0637      8.463   -21.113
11.2246      8.935   -21.350
11.3879      9.407   -21.591
11.5535      9.879   -21.835
11.7216     10.351   -22.083
11.8921     10.824   -22.335
12.0650     11.296   -22.591
12.2405     11.769   -22.850
12.4186     12.241   -23.114
12.5992     12.714   -23.382
12.7825     13.187   -23.654
12.9684     13.660   -23.930
13.1570     14.133   -24.210
13.3484     14.607   -24.495
13.5426     15.080   -24.784
13.7395     15.554   -25.077
13.9394     16.027   -25.375
14.1421     16.501   -25.678
14.3478     16.975   -25.986
14.5565     17.449   -26.298
14.7683     17.923   -26.616
14.9831     18.398   -26.938
15.2010     18.872   -27.266
15.4221     19.347   -27.598
15.6464     19.822   -27.936
15.8740     20.297   -28.279
16.1049     20.772   -28.628
16.3392     21.248   -28.983
16.5768     21.723   -29.343
16.8179     22.199   -29.709
17.0626     22.675   -30.081
17.3107     23.151   -30.459
17.5625     23.628   -30.843
17.8180     24.105   -31.233
18.0771     24.581   -31.630
18.3401     25.059   -32.033
18.6068     25.536   -32.443
18.8775     26.014   -32.860
19.1521     26.491   -33.283
19.4306     26.969   -33.714
19.7133     27.445   -34.168
20.0000     27.916   -34.664
20.2909     28.375   -35.211
20.5860     28.818   -35.772
20.8855     29.249   -36.210
21.1893     29.673   -36.456
21.4975     30.098   -36.592
21.8102     30.538   -36.698
22.1274     30.995   -36.848
22.4492     31.471   -37.086
22.7758     31.963   -37.395
23.1071     32.467   -37.814
23.4432     32.979   -38.341
23.7841     33.490   -39.031
24.1301     33.997   -39.985
24.4811     34.496   -41.075
24.8372     34.984   -42.113
25.1984     35.465   -43.021
25.5649     35.940   -43.753
25.9368     36.414   -44.407
26.3141     36.890   -45.105
26.6968     37.368   -45.907
27.0851     37.848   -46.845
27.4791     38.328   -47.880
27.8788     38.809   -48.927
28.2843     39.288   -49.906
28.6957     39.767   -50.829
29.1131     40.246   -51.756
29.5365     40.726   -52.726
29.9661     41.205   -53.783
30.4020     41.683   -54.870
30.8442     42.160   -55.956
31.2929     42.633   -57.072
31.7480     43.101   -58.230
32.2098     43.565   -59.474
32.6783     44.028   -60.787
33.1536     44.495   -61.933
33.6359     44.970   -62.787
34.1251     45.458   -63.337
34.6215     45.960   -63.932
35.1250     46.475   -64.825
35.6359     46.999   -66.081
36.1543     47.525   -67.491
36.6802     48.050   -68.925
37.2137     48.570   -70.303
37.7550     49.086   -71.638
38.3041     49.598   -73.074
38.8613     50.108   -74.781
39.4265     50.618   -76.555
40.0000     51.128   -78.227
40.5818     51.639   -79.709
41.1721     52.150   -81.164
41.7710     52.660   -82.760
42.3785     53.167   -84.611
42.9949     53.667   -86.697
43.6203     54.157   -88.914
44.2548     54.637   -91.127
44.8985     55.109   -93.209
45.5515     55.575   -95.108
46.2141     56.041   -96.886
46.8863     56.508   -98.644
47.5683     56.979  -100.466
48.2602     57.454  -102.404
48.9621     57.933  -104.458
49.6743     58.413  -106.601
50.3968     58.893  -108.810
51.1299     59.371  -111.067
51.8736     59.845  -113.357
52.6281     60.314  -115.684
53.3936     60.778  -118.063
54.1702     61.236  -120.503
54.9581     61.688  -122.999
55.7575     62.135  -125.556
56.5685     62.576  -128.183
57.3914     63.011  -130.853
58.2261     63.439  -133.555
59.0730     63.859  -136.305
59.9323     64.268  -139.123
60.8040     64.666  -142.003
61.6884     65.054  -144.930
62.5857     65.432  -147.899
63.4960     65.800  -150.905
64.4196     66.156  -153.938
65.3566     66.498  -156.996
66.3073     66.827  -160.086
67.2717     67.146  -163.202
68.2502     67.459  -166.338
69.2429     67.765  -169.507
70.2501     68.060  -172.729
71.2719     68.338  -176.002
72.3086     68.593  -179.290
73.3603     68.828   177.458
74.4274     69.046   174.263
75.5099     69.252   171.125
76.6083     69.449   168.023
77.7226     69.637   164.925
78.8531     69.813   161.831
80.0000     69.977   158.744
81.1636     70.129   155.688
82.3442     70.268   152.683
83.5419     70.396   149.722
84.7570     70.512   146.804
85.9899     70.616   143.941
87.2406     70.710   141.142
88.5096     70.795   138.409
89.7970     70.875   135.743
91.1031     70.951   133.129
92.4282     71.024   130.552
93.7726     71.094   128.013
95.1366     71.157   125.511
96.5204     71.215   123.040
97.9243     71.265   120.602
99.3486     71.308   118.210
100.794     71.345   115.867
102.260     71.376   113.578
103.747     71.404   111.353
105.256     71.431   109.187
106.787     71.459   107.044
108.340     71.485   104.899
109.916     71.505   102.769
111.515     71.516   100.670
113.137     71.518    98.619
114.783     71.514    96.644
116.452     71.509    94.738
118.146     71.504    92.871
119.865     71.497    91.034
121.608     71.487    89.229
123.377     71.472    87.474
125.171     71.455    85.784
126.992     71.438    84.155
128.839     71.424    82.570
130.713     71.412    81.018
132.615     71.402    79.476
134.543     71.391    77.939
136.500     71.376    76.423
138.486     71.359    74.939
140.500     71.342    73.491
142.544     71.324    72.083
144.617     71.307    70.709
146.721     71.293    69.360
148.855     71.279    68.030
151.020     71.264    66.712
153.217     71.248    65.408
155.445     71.231    64.120
157.706     71.211    62.844
160.000     71.185    61.590
162.327     71.154    60.386
164.688     71.122    59.249
167.084     71.092    58.180
169.514     71.070    57.168
171.980     71.057    56.177
174.481     71.048    55.176
177.019     71.041    54.161
179.594     71.033    53.132
182.206     71.020    52.106
184.856     71.005    51.103
187.545     70.989    50.123
190.273     70.971    49.175
193.041     70.954    48.268
195.849     70.938    47.397
198.697     70.925    46.554
201.587     70.914    45.722
204.520     70.903    44.891
207.494     70.888    44.102
210.512     70.874    43.392
213.574     70.870    42.771
216.681     70.885    42.188
219.833     70.921    41.541
223.030     70.967    40.743
226.274     71.002    39.764
229.565     71.014    38.695
232.905     71.001    37.673
236.292     70.974    36.777
239.729     70.948    36.036
243.216     70.934    35.415
246.754     70.936    34.826
250.343     70.947    34.218
253.984     70.963    33.599
257.678     70.988    32.988
261.426     71.024    32.320
265.229     71.063    31.540
269.087     71.092    30.663
273.001     71.105    29.722
276.972     71.098    28.816
281.000     71.081    28.061
285.088     71.076    27.454
289.234     71.093    26.888
293.441     71.127    26.235
297.709     71.164    25.441
302.040     71.189    24.552
306.433     71.198    23.659
310.890     71.196    22.841
315.412     71.192    22.136
320.000     71.201    21.492
324.655     71.221    20.804
329.377     71.243    20.033
334.168     71.262    19.184
339.028     71.269    18.299
343.959     71.262    17.476
348.962     71.258    16.749
354.038     71.262    16.032
359.188     71.266    15.299
364.412     71.271    14.576
369.713     71.278    13.799
375.090     71.275    12.993
380.546     71.269    12.243
386.081     71.266    11.508
391.697     71.265    10.757
397.394     71.256     9.975
403.175     71.227     9.240
409.039     71.194     8.675
414.989     71.179     8.224
421.025     71.185     7.805
427.149     71.213     7.363
433.362     71.258     6.786
439.665     71.296     6.024
446.060     71.315     5.146
452.548     71.315     4.249
459.131     71.292     3.391
465.809     71.257     2.658
472.584     71.228     2.061
479.458     71.208     1.510
486.432     71.192     0.991
493.507     71.182     0.543
500.686     71.191     0.155
507.968     71.219    -0.270
515.357     71.253    -0.755
522.853     71.293    -1.246
530.458     71.345    -1.774
538.174     71.404    -2.374
546.002     71.470    -3.098
553.943     71.534    -3.972
562.001     71.591    -4.940
570.175     71.637    -6.027
578.469     71.651    -7.180
586.883     71.642    -8.225
595.419     71.629    -9.151
604.080     71.606   -10.063
612.866     71.576   -10.922
621.780     71.552   -11.599
630.824     71.543   -12.141
640.000     71.561   -12.636
649.309     71.608   -13.181
658.753     71.661   -13.966
668.335     71.689   -14.982
678.056     71.684   -16.061
687.919     71.648   -16.978
697.925     71.626   -17.577
708.077     71.675   -18.186
718.376     71.738   -19.347
728.825     71.700   -20.671
739.426     71.637   -21.388
750.181     71.649   -21.850
761.093     71.704   -22.590
772.163     71.758   -23.557
783.394     71.800   -24.686
794.789     71.803   -25.981
806.349     71.763   -27.213
818.078     71.702   -28.291
829.977     71.635   -29.187
842.050     71.598   -29.804
854.298     71.618   -30.337
866.724     71.676   -30.990
879.330     71.758   -31.851
892.120     71.848   -33.070
905.097     71.899   -34.640
918.262     71.881   -36.289
931.618     71.817   -37.783
945.169     71.751   -38.997
958.917     71.706   -39.910
972.864     71.701   -40.806
987.015     71.719   -41.956
1001.37     71.724   -43.236
1015.94     71.709   -44.647
1030.71     71.665   -46.191
1045.71     71.599   -47.578
1060.92     71.539   -48.776
1076.35     71.480   -49.997
1092.00     71.384   -51.189
1107.89     71.270   -52.068
1124.00     71.196   -52.700
1140.35     71.168   -53.302
1156.94     71.195   -53.887
1173.77     71.273   -54.830
1190.84     71.316   -56.314
1208.16     71.296   -57.815
1225.73     71.254   -59.277
1243.56     71.188   -60.696
1261.65     71.113   -61.826
1280.00     71.073   -62.876
1298.62     71.042   -63.912
1317.51     71.036   -64.897
1336.67     71.046   -66.087
1356.11     71.025   -67.204
1375.84     71.020   -68.228
1395.85     71.021   -69.268
1416.15     71.018   -70.182
1436.75     71.045   -71.130
1457.65     71.081   -72.121
1478.85     71.146   -73.083
1500.36     71.250   -74.176
1522.19     71.391   -75.465
1544.33     71.591   -77.119
1566.79     71.783   -79.360
1589.58     71.933   -82.079
1612.70     72.023   -85.019
1636.16     72.034   -88.014
1659.95     72.012   -91.040
1684.10     71.943   -93.830
1708.60     71.849   -96.533
1733.45     71.742   -99.058
1758.66     71.603  -101.202
1784.24     71.465  -103.011
1810.19     71.364  -104.594
1836.52     71.312  -105.854
1863.24     71.330  -107.064
1890.34     71.404  -108.613
1917.83     71.539  -110.715
1945.73     71.675  -113.172
1974.03     71.760  -116.304
2002.74     71.760  -119.854
2031.87     71.633  -123.279
2061.43     71.433  -126.428
2091.41     71.226  -129.100
2121.83     71.024  -131.269
2152.69     70.885  -133.002
2184.01     70.813  -134.229
2215.77     70.789  -135.541
2248.00     70.789  -137.080
2280.70     70.817  -138.882
2313.87     70.917  -141.075
2347.53     71.008  -143.621
2381.68     71.062  -146.159
2416.32     71.125  -148.327
2451.46     71.164  -150.527
2487.12     71.187  -152.631
2523.30     71.248  -154.602
2560.00     71.344  -156.950
2597.24     71.427  -159.634
2635.01     71.486  -162.454
2673.34     71.507  -165.609
2712.23     71.441  -168.976
2751.68     71.315  -172.031
2791.70     71.203  -174.863
2832.31     71.094  -177.516
2873.50     71.022  -179.571
2915.30     71.052   178.382
2957.70     71.104   176.149
3000.72     71.152   173.918
3044.37     71.159   171.285
3088.65     71.042   168.653
3133.58     70.900   167.251
3179.16     70.986   165.375
3225.40     70.926   163.026
3272.31     70.842   161.554
3319.91     70.815   160.659
3368.20     70.885   159.853
3417.19     71.042   158.422
3466.89     71.204   156.109
3517.32     71.280   153.186
3568.48     71.238   150.175
3620.39     71.088   147.767
3673.05     70.903   146.296
3726.47     70.762   145.648
3780.67     70.739   145.085
3835.67     70.806   144.255
3891.46     70.902   142.898
3948.06     70.973   141.199
4005.49     71.004   139.564
4063.75     71.019   138.038
4122.86     71.038   136.470
4182.82     71.034   134.621
4243.66     70.966   132.586
4305.39     70.827   130.599
4368.01     70.639   129.063
4431.55     70.450   127.990
4496.01     70.284   127.105
4561.40     70.141   126.381
4627.75     69.993   125.762
4695.06     69.822   125.390
4763.35     69.649   125.464
4832.64     69.506   125.868
4902.93     69.412   126.515
4974.24     69.367   127.046
5046.60     69.336   127.593
5120.00     69.308   128.182
5194.47     69.298   128.942
5270.03     69.339   129.906
5346.68     69.428   130.803
5424.45     69.567   131.654
5503.35     69.752   132.426
5583.40     69.955   132.889
5664.61     70.174   133.104
5747.01     70.381   132.986
5830.60     70.566   132.814
5915.41     70.755   132.529
6001.45     70.938   131.981
6088.74     71.088   131.280
6177.30     71.197   130.568
6267.15     71.298   130.008
6358.31     71.414   129.574
6450.80     71.556   129.101
6544.62     71.711   128.440
6639.82     71.855   127.602
6736.40     71.994   126.552
6834.38     72.074   125.178
6933.79     72.073   123.939
7034.64     72.066   122.829
7136.96     71.976   121.453
7240.77     71.803   120.748
7346.09     71.680   120.336
7452.94     71.479   119.793
7561.35     71.256   120.349
7671.33     71.155   121.037
7782.91     71.007   121.477
7896.12     70.879   122.647
8010.97     70.836   123.541
8127.49     70.754   124.318
8245.71     70.695   125.392
8365.65     70.646   126.351
8487.33     70.578   127.530
8610.78     70.530   129.084
8736.03     70.548   130.851
8863.09     70.645   132.498
8992.01     70.774   133.888
9122.80     70.954   135.216
9255.50     71.192   135.887
9390.12     71.364   135.994
9526.70     71.477   136.007
9665.27     71.559   135.906
9805.86     71.574   135.713
9948.49     71.536   135.833
10093.2     71.500   136.261
10240.0     71.492   137.117
10388.9     71.559   137.745
10540.1     71.599   138.199
10693.4     71.670   138.495
10848.9     71.699   138.189
11006.7     71.629   137.822
11166.8     71.501   137.563
11329.2     71.286   137.448
11494.0     70.985   137.910
11661.2     70.633   139.108
11830.8     70.263   141.324
12002.9     69.938   144.319
12177.5     69.692   148.365
12354.6     69.672   152.928
12534.3     69.842   156.954
12716.6     70.193   160.378
12901.6     70.598   161.818
13089.2     70.787   162.811
13279.6     70.970   164.075
13472.8     71.121   165.060
13668.8     71.243   166.127
13867.6     71.379   167.058
14069.3     71.466   167.897
14273.9     71.569   169.011
14481.5     71.659   169.760
14692.2     71.709   170.813
14905.9     71.749   171.729
15122.7     71.738   172.989
15342.7     71.746   174.383
15565.8     71.775   176.122
15792.2     71.826   177.750
16021.9     71.931   179.400
16255.0     72.004  -179.200
16491.4     72.066  -177.812
16731.3     72.086  -176.295
16974.7     72.098  -174.290
17221.6     72.129  -172.154
17472.1     72.184  -169.663
17726.2     72.258  -167.478
17984.0     72.333  -165.109
18245.6     72.347  -163.079
18511.0     72.369  -160.988
18780.2     72.345  -158.623
19053.4     72.322  -156.241
19330.5     72.353  -153.489
19611.7     72.399  -150.345
19897.0     72.550  -147.114
20186.4     72.824  -143.565
20480.0     73.199  -140.314
20777.9     73.675  -137.565
21080.1     74.177  -135.504
21386.7     74.686  -134.147
21697.8     75.100  -133.419
22013.4     75.444  -133.246
22333.6     75.736  -133.226
22658.4     75.894  -133.659
22988.0     75.889  -134.574
23322.4     75.564  -135.213
