Freq[Hz]     dBSPL  Phase[Deg]
Freq[Hz]     dBSPL  Phase[Deg]
5.00000    -17.766   -14.721
5.07273    -17.409   -14.807
5.14651    -17.022   -14.900
5.22137    -16.589   -15.002
5.29732    -16.137   -15.109
5.37437    -15.664   -15.221
5.45254    -15.192   -15.335
5.53185    -14.719   -15.449
5.61231    -14.247   -15.565
5.69394    -13.774   -15.683
5.77676    -13.302   -15.802
5.86079    -12.829   -15.922
5.94604    -12.357   -16.044
6.03252    -11.884   -16.167
6.12027    -11.412   -16.292
6.20929    -10.939   -16.418
6.29961    -10.466   -16.546
6.39124     -9.994   -16.676
6.48420     -9.521   -16.807
6.57851     -9.048   -16.940
6.67420     -8.575   -17.075
6.77128     -8.102   -17.212
6.86977     -7.629   -17.351
6.96969     -7.156   -17.492
7.07107     -6.683   -17.634
7.17392     -6.210   -17.779
7.27827     -5.737   -17.927
7.38413     -5.263   -18.076
7.49154     -4.790   -18.228
7.60050     -4.316   -18.382
7.71105     -3.843   -18.539
7.82321     -3.369   -18.698
7.93701     -2.896   -18.860
8.05245     -2.422   -19.024
8.16958     -1.948   -19.191
8.28841     -1.474   -19.361
8.40896     -1.000   -19.533
8.53128     -0.527   -19.708
8.65537     -0.053   -19.886
8.78126      0.421   -20.066
8.90899      0.895   -20.250
9.03857      1.369   -20.436
9.17004      1.843   -20.625
9.30342      2.317   -20.816
9.43874      2.791   -21.011
9.57603      3.266   -21.208
9.71532      3.740   -21.408
9.85663      4.214   -21.611
10.0000      4.688   -21.817
10.1455      5.163   -22.027
10.2930      5.637   -22.239
10.4427      6.112   -22.454
10.5946      6.587   -22.672
10.7487      7.061   -22.894
10.9051      7.536   -23.119
11.0637      8.011   -23.347
11.2246      8.486   -23.579
11.3879      8.961   -23.814
11.5535      9.437   -24.053
11.7216      9.912   -24.296
11.8921     10.387   -24.542
12.0650     10.863   -24.793
12.2405     11.339   -25.047
12.4186     11.814   -25.305
12.5992     12.290   -25.568
12.7825     12.766   -25.834
12.9684     13.242   -26.105
13.1570     13.719   -26.380
13.3484     14.195   -26.659
13.5426     14.671   -26.942
13.7395     15.148   -27.230
13.9394     15.625   -27.522
14.1421     16.102   -27.819
14.3478     16.579   -28.120
14.5565     17.056   -28.426
14.7683     17.533   -28.737
14.9831     18.010   -29.053
15.2010     18.488   -29.374
15.4221     18.966   -29.699
15.6464     19.444   -30.030
15.8740     19.922   -30.367
16.1049     20.400   -30.709
16.3392     20.879   -31.056
16.5768     21.357   -31.409
16.8179     21.836   -31.768
17.0626     22.315   -32.132
17.3107     22.795   -32.503
17.5625     23.274   -32.879
17.8180     23.754   -33.262
18.0771     24.234   -33.651
18.3401     24.714   -34.046
18.6068     25.194   -34.448
18.8775     25.675   -34.856
19.1521     26.156   -35.272
19.4306     26.637   -35.694
19.7133     27.117   -36.143
20.0000     27.593   -36.644
20.2909     28.061   -37.211
20.5860     28.514   -37.807
20.8855     28.951   -38.268
21.1893     29.371   -38.513
21.4975     29.784   -38.629
21.8102     30.203   -38.692
22.1274     30.639   -38.779
22.4492     31.105   -38.936
22.7758     31.605   -39.150
23.1071     32.128   -39.496
23.4432     32.665   -39.991
23.7841     33.201   -40.701
24.1301     33.723   -41.743
24.4811     34.227   -42.953
24.8372     34.713   -44.085
25.1984     35.187   -45.047
25.5649     35.658   -45.793
25.9368     36.131   -46.442
26.3141     36.610   -47.145
26.6968     37.093   -47.976
27.0851     37.578   -48.973
27.4791     38.062   -50.083
27.8788     38.541   -51.203
28.2843     39.017   -52.232
28.6957     39.492   -53.173
29.1131     39.969   -54.100
29.5365     40.450   -55.074
29.9661     40.936   -56.166
30.4020     41.420   -57.322
30.8442     41.897   -58.499
31.2929     42.366   -59.703
31.7480     42.825   -60.917
32.2098     43.279   -62.186
32.6783     43.736   -63.506
33.1536     44.200   -64.663
33.6359     44.675   -65.541
34.1251     45.160   -66.134
34.6215     45.659   -66.765
35.1250     46.171   -67.671
35.6359     46.691   -68.920
36.1543     47.217   -70.315
36.6802     47.746   -71.749
37.2137     48.272   -73.161
37.7550     48.794   -74.577
38.3041     49.309   -76.109
38.8613     49.819   -77.896
39.4265     50.325   -79.727
40.0000     50.830   -81.416
40.5818     51.336   -82.883
41.1721     51.845   -84.315
41.7710     52.358   -85.886
42.3785     52.873   -87.734
42.9949     53.386   -89.850
43.6203     53.891   -92.137
44.2548     54.384   -94.463
44.8985     54.861   -96.695
45.5515     55.325   -98.749
46.2141     55.782  -100.657
46.8863     56.237  -102.511
47.5683     56.698  -104.392
48.2602     57.164  -106.366
48.9621     57.637  -108.449
49.6743     58.115  -110.620
50.3968     58.594  -112.869
51.1299     59.073  -115.175
51.8736     59.548  -117.519
52.6281     60.016  -119.909
53.3936     60.478  -122.355
54.1702     60.934  -124.863
54.9581     61.384  -127.427
55.7575     61.829  -130.053
56.5685     62.268  -132.752
57.3914     62.701  -135.502
58.2261     63.125  -138.282
59.0730     63.540  -141.101
59.9323     63.946  -143.982
60.8040     64.341  -146.922
61.6884     64.725  -149.906
62.5857     65.101  -152.931
63.4960     65.467  -155.997
64.4196     65.820  -159.102
65.3566     66.158  -162.243
66.3073     66.483  -165.423
67.2717     66.795  -168.632
68.2502     67.097  -171.843
69.2429     67.395  -175.058
70.2501     67.686  -178.294
71.2719     67.966   178.426
72.3086     68.227   175.114
73.3603     68.468   171.811
74.4274     68.691   168.530
75.5099     68.898   165.283
76.6083     69.094   162.061
77.7226     69.278   158.846
78.8531     69.451   155.643
80.0000     69.610   152.456
81.1636     69.756   149.315
82.3442     69.891   146.246
83.5419     70.017   143.228
84.7570     70.134   140.241
85.9899     70.241   137.288
87.2406     70.338   134.371
88.5096     70.425   131.498
89.7970     70.501   128.685
91.1031     70.572   125.933
92.4282     70.640   123.230
93.7726     70.703   120.569
95.1366     70.759   117.949
96.5204     70.809   115.365
97.9243     70.852   112.823
99.3486     70.889   110.331
100.794     70.922   107.889
102.260     70.950   105.488
103.747     70.974   103.136
105.256     70.994   100.835
106.787     71.012    98.570
108.340     71.027    96.330
109.916     71.039    94.124
111.515     71.045    91.956
113.137     71.046    89.834
114.783     71.044    87.774
116.452     71.045    85.757
118.146     71.047    83.741
119.865     71.046    81.720
121.608     71.038    79.702
123.377     71.018    77.715
125.171     70.990    75.810
126.992     70.959    73.996
128.839     70.931    72.252
130.713     70.909    70.541
132.615     70.889    68.823
134.543     70.867    67.090
136.500     70.838    65.369
138.486     70.801    63.696
140.500     70.760    62.097
142.544     70.718    60.585
144.617     70.682    59.154
146.721     70.655    57.771
148.855     70.637    56.394
151.020     70.625    54.994
153.217     70.612    53.561
155.445     70.597    52.105
157.706     70.575    50.646
160.000     70.546    49.211
162.327     70.514    47.828
164.688     70.483    46.492
167.084     70.456    45.180
169.514     70.431    43.878
171.980     70.407    42.571
174.481     70.379    41.258
177.019     70.346    39.972
179.594     70.311    38.732
182.206     70.277    37.537
184.856     70.247    36.370
187.545     70.223    35.201
190.273     70.198    34.015
193.041     70.170    32.828
195.849     70.141    31.659
198.697     70.112    30.508
201.587     70.083    29.353
204.520     70.051    28.176
207.494     70.010    27.004
210.512     69.959    25.888
213.574     69.904    24.875
216.681     69.852    23.973
219.833     69.811    23.145
223.030     69.787    22.330
226.274     69.779    21.442
229.565     69.774    20.454
232.905     69.766    19.416
236.292     69.756    18.352
239.729     69.742    17.264
243.216     69.722    16.157
246.754     69.693    15.037
250.343     69.652    13.917
253.984     69.598    12.843
257.678     69.533    11.893
261.426     69.473    11.102
265.229     69.437    10.398
269.087     69.427     9.642
273.001     69.430     8.727
276.972     69.425     7.652
281.000     69.399     6.517
285.088     69.354     5.441
289.234     69.300     4.474
293.441     69.256     3.602
297.709     69.228     2.723
302.040     69.201     1.771
306.433     69.169     0.802
310.890     69.130    -0.151
315.412     69.085    -1.051
320.000     69.047    -1.881
324.655     69.024    -2.743
329.377     69.007    -3.701
334.168     68.990    -4.754
339.028     68.967    -5.926
343.959     68.923    -7.177
348.962     68.855    -8.394
354.038     68.773    -9.532
359.188     68.678   -10.589
364.412     68.579   -11.525
369.713     68.492   -12.395
375.090     68.411   -13.292
380.546     68.323   -14.175
386.081     68.238   -15.003
391.697     68.153   -15.828
397.394     68.062   -16.688
403.175     67.961   -17.575
409.039     67.838   -18.422
414.989     67.696   -19.101
421.025     67.556   -19.510
427.149     67.444   -19.690
433.362     67.377   -19.816
439.665     67.351   -20.119
446.060     67.336   -20.748
452.548     67.296   -21.600
459.131     67.224   -22.468
465.809     67.124   -23.273
472.584     66.998   -23.870
479.458     66.873   -24.116
486.432     66.783   -24.132
493.507     66.729   -24.046
500.686     66.727   -23.912
507.968     66.789   -24.006
515.357     66.869   -24.576
522.853     66.925   -25.526
530.458     66.955   -26.710
538.174     66.948   -28.015
546.002     66.930   -29.285
553.943     66.926   -30.677
562.001     66.893   -32.353
570.175     66.795   -34.157
578.469     66.617   -35.842
586.883     66.359   -37.029
595.419     66.079   -37.589
604.080     65.839   -37.614
612.866     65.686   -37.311
621.780     65.625   -37.273
630.824     65.593   -37.674
640.000     65.551   -38.200
649.309     65.507   -38.729
658.753     65.478   -39.128
668.335     65.475   -39.419
678.056     65.494   -39.805
687.919     65.525   -40.363
697.925     65.557   -41.127
708.077     65.592   -42.212
718.376     65.607   -43.892
728.825     65.517   -45.861
739.426     65.370   -47.434
750.181     65.229   -48.790
761.093     65.058   -50.138
772.163     64.825   -51.087
783.394     64.567   -51.237
794.789     64.382   -50.689
806.349     64.333   -49.934
818.078     64.405   -49.472
829.977     64.547   -49.521
842.050     64.702   -50.136
854.298     64.846   -51.138
866.724     64.987   -52.500
879.330     65.101   -54.420
892.120     65.135   -56.696
905.097     65.051   -59.038
918.262     64.850   -60.801
931.618     64.604   -61.595
945.169     64.394   -61.719
958.917     64.291   -61.185
972.864     64.369   -60.907
987.015     64.500   -61.825
1001.37     64.564   -63.263
1015.94     64.585   -65.109
1030.71     64.526   -67.233
1045.71     64.421   -68.993
1060.92     64.350   -70.574
1076.35     64.298   -72.409
1092.00     64.199   -74.967
1107.89     63.946   -78.127
1124.00     63.501   -81.160
1140.35     62.870   -83.614
1156.94     62.079   -84.369
1173.77     61.336   -82.898
1190.84     60.820   -80.384
1208.16     60.585   -77.749
1225.73     60.635   -76.111
1243.56     60.761   -76.666
1261.65     60.722   -79.030
1280.00     60.420   -82.110
1298.62     59.799   -84.207
1317.51     59.064   -83.672
1336.67     58.491   -81.497
1356.11     58.180   -78.998
1375.84     58.165   -76.680
1395.85     58.375   -76.462
1416.15     58.547   -78.736
1436.75     58.548   -82.939
1457.65     58.300   -88.513
1478.85     57.863   -94.376
1500.36     57.199  -100.026
1522.19     56.284  -104.706
1544.33     55.216  -106.611
1566.79     54.359  -106.200
1589.58     53.891  -105.141
1612.70     53.960  -104.832
1636.16     54.277  -108.400
1659.95     54.426  -116.589
1684.10     54.115  -126.503
1708.60     53.400  -134.541
1733.45     52.362  -139.478
1758.66     51.469  -139.848
1784.24     51.223  -136.881
1810.19     51.728  -136.998
1836.52     52.438  -143.151
1863.24     52.694  -151.399
1890.34     52.508  -159.838
1917.83     52.029  -166.237
1945.73     51.513  -168.854
1974.03     51.484  -168.774
2002.74     51.913  -167.707
2031.87     52.610  -168.684
2061.43     53.312  -173.030
2091.41     53.642  -177.898
2121.83     53.863   178.290
2152.69     54.184   175.680
2184.01     54.659   173.801
2215.77     55.099   171.300
2248.00     55.427   169.569
2280.70     55.565   169.846
2313.87     55.704   171.863
2347.53     56.138   175.103
2381.68     56.819   178.759
2416.32     57.581  -179.585
2451.46     58.335  -179.100
2487.12     59.019  -178.062
2523.30     59.771  -176.778
2560.00     60.586  -175.971
2597.24     61.463  -176.389
2635.01     62.246  -178.228
2673.34     62.870   179.158
2712.23     63.351   176.267
2751.68     63.605   173.710
2791.70     63.696   172.316
2832.31     63.578   171.795
2873.50     63.118   172.264
2915.30     62.540   174.826
2957.70     62.003   178.478
3000.72     61.592  -177.719
3044.37     61.333  -173.507
3088.65     61.193  -169.575
3133.58     61.042  -165.642
3179.16     61.020  -161.409
3225.40     60.992  -158.934
3272.31     60.811  -157.382
3319.91     60.298  -155.395
3368.20     59.806  -151.627
3417.19     59.385  -147.453
3466.89     58.916  -142.320
3517.32     58.550  -136.721
3568.48     58.137  -131.501
3620.39     57.640  -126.441
3673.05     57.001  -121.124
3726.47     56.309  -115.548
3780.67     55.548  -109.389
3835.67     54.512  -101.489
3891.46     53.526   -90.873
3948.06     52.475   -78.595
4005.49     51.569   -61.165
4063.75     51.963   -41.303
4122.86     53.123   -23.257
4182.82     55.019    -8.576
4243.66     57.047    -0.802
4305.39     58.403     1.428
4368.01     59.110     0.014
4431.55     59.059    -3.057
4496.01     58.079    -2.370
4561.40     56.726     4.465
4627.75     55.400    19.827
4695.06     54.690    40.187
4763.35     55.300    59.300
4832.64     56.826    74.299
4902.93     58.239    82.113
4974.24     59.183    83.417
5046.60     59.503    82.286
5120.00     59.056    82.201
5194.47     58.030    87.474
5270.03     56.800    97.752
5346.68     55.812   111.663
5424.45     55.451   126.428
5503.35     55.591   138.725
5583.40     55.612   148.773
5664.61     55.386   157.483
5747.01     54.776   168.961
5830.60     54.139  -177.013
5915.41     53.870  -160.504
6001.45     54.145  -143.315
6088.74     54.686  -128.885
6177.30     55.264  -117.839
6267.15     55.328  -107.672
6358.31     55.111   -97.171
6450.80     54.691   -83.529
6544.62     54.458   -67.973
6639.82     54.616   -53.181
6736.40     54.927   -39.371
6834.38     55.090   -27.950
6933.79     54.818   -16.645
7034.64     54.070    -0.691
7136.96     53.079    17.144
7240.77     52.190    37.399
7346.09     51.661    60.783
7452.94     51.690    80.810
7561.35     51.625    99.059
7671.33     51.131   122.578
7782.91     51.105   146.580
7896.12     51.688   166.826
8010.97     52.115  -173.830
8127.49     52.785  -159.188
8245.71     53.345  -149.745
8365.65     53.345  -138.994
8487.33     53.143  -126.104
8610.78     52.907  -110.398
8736.03     52.689   -93.178
8863.09     52.495   -73.628
8992.01     52.228   -52.950
9122.80     51.756   -31.938
9255.50     51.156    -7.288
9390.12     51.072    19.754
9526.70     51.498    44.162
9665.27     52.000    67.175
9805.86     52.614    88.531
9948.49     53.124   107.176
10093.2     53.011   124.614
10240.0     52.505   147.704
10388.9     52.259   173.094
10540.1     52.141  -162.983
10693.4     52.126  -137.931
10848.9     52.491  -115.989
11006.7     52.764   -99.057
11166.8     52.321   -82.568
11329.2     51.752   -60.643
11494.0     51.120   -35.378
11661.2     50.521    -5.658
11830.8     50.819    28.500
12002.9     51.353    58.670
12177.5     51.740    88.393
12354.6     52.347   115.515
12534.3     52.253   137.713
12716.6     51.961   163.285
12901.6     51.551  -171.875
13089.2     50.738  -142.513
13279.6     50.439  -109.186
13472.8     50.515   -77.555
13668.8     50.802   -44.926
13867.6     51.276   -16.728
14069.3     51.455    10.140
14273.9     51.536    38.597
14481.5     51.308    66.912
14692.2     50.930    99.725
14905.9     50.835   131.896
15122.7     50.408   161.714
15342.7     49.698  -166.685
15565.8     49.380  -132.719
15792.2     49.244   -99.593
16021.9     49.290   -62.844
16255.0     49.735   -27.277
16491.4     49.439     5.569
16731.3     48.770    40.942
16974.7     47.757    76.701
17221.6     46.217   115.511
17472.1     45.062   158.645
17726.2     44.901  -155.107
17984.0     45.739  -105.180
18245.6     46.953   -61.743
18511.0     47.842   -20.978
18780.2     48.546    17.561
19053.4     48.466    48.916
19330.5     47.888    82.086
19611.7     46.716   111.596
19897.0     45.047   135.115
20186.4     43.135   144.636
20480.0     41.812   139.627
20777.9     42.023   130.200
21080.1     42.737   121.023
21386.7     44.134   122.292
21697.8     45.658   144.397
22013.4     46.631   177.659
22333.6     47.399  -141.186
22658.4     48.080   -98.060
22988.0     48.162   -56.232
23322.4     47.907   -14.908
