Freq[Hz]     dBSPL  Phase[Deg]
Freq[Hz]     dBSPL  Phase[Deg]
5.00000    -18.147   -12.855
5.07273    -17.790   -12.945
5.14651    -17.401   -13.043
5.22137    -16.966   -13.152
5.29732    -16.512   -13.266
5.37437    -16.037   -13.387
5.45254    -15.562   -13.509
5.53185    -15.088   -13.633
5.61231    -14.613   -13.759
5.69394    -14.138   -13.886
5.77676    -13.663   -14.016
5.86079    -13.189   -14.146
5.94604    -12.714   -14.279
6.03252    -12.239   -14.414
6.12027    -11.764   -14.550
6.20929    -11.289   -14.689
6.29961    -10.815   -14.829
6.39124    -10.340   -14.971
6.48420     -9.865   -15.115
6.57851     -9.390   -15.262
6.67420     -8.915   -15.410
6.77128     -8.440   -15.560
6.86977     -7.965   -15.713
6.96969     -7.489   -15.868
7.07107     -7.014   -16.025
7.17392     -6.539   -16.184
7.27827     -6.064   -16.346
7.38413     -5.588   -16.511
7.49154     -5.113   -16.677
7.60050     -4.637   -16.847
7.71105     -4.162   -17.018
7.82321     -3.686   -17.193
7.93701     -3.210   -17.370
8.05245     -2.735   -17.550
8.16958     -2.259   -17.733
8.28841     -1.783   -17.918
8.40896     -1.307   -18.106
8.53128     -0.832   -18.298
8.65537     -0.356   -18.492
8.78126      0.120   -18.689
8.90899      0.596   -18.889
9.03857      1.072   -19.092
9.17004      1.549   -19.298
9.30342      2.025   -19.507
9.43874      2.501   -19.720
9.57603      2.977   -19.935
9.71532      3.453   -20.154
9.85663      3.930   -20.376
10.0000      4.406   -20.601
10.1455      4.883   -20.829
10.2930      5.359   -21.061
10.4427      5.836   -21.296
10.5946      6.313   -21.535
10.7487      6.790   -21.777
10.9051      7.267   -22.023
11.0637      7.744   -22.273
11.2246      8.221   -22.526
11.3879      8.698   -22.784
11.5535      9.175   -23.045
11.7216      9.653   -23.310
11.8921     10.130   -23.580
12.0650     10.608   -23.853
12.2405     11.085   -24.131
12.4186     11.563   -24.413
12.5992     12.041   -24.699
12.7825     12.519   -24.990
12.9684     12.997   -25.286
13.1570     13.476   -25.586
13.3484     13.954   -25.890
13.5426     14.433   -26.200
13.7395     14.911   -26.514
13.9394     15.390   -26.833
14.1421     15.869   -27.157
14.3478     16.348   -27.486
14.5565     16.827   -27.820
14.7683     17.307   -28.159
14.9831     17.786   -28.503
15.2010     18.266   -28.853
15.4221     18.746   -29.209
15.6464     19.226   -29.570
15.8740     19.706   -29.936
16.1049     20.186   -30.309
16.3392     20.667   -30.688
16.5768     21.148   -31.072
16.8179     21.629   -31.463
17.0626     22.110   -31.861
17.3107     22.591   -32.264
17.5625     23.073   -32.674
17.8180     23.554   -33.091
18.0771     24.036   -33.515
18.3401     24.519   -33.945
18.6068     25.001   -34.383
18.8775     25.484   -34.827
19.1521     25.967   -35.279
19.4306     26.450   -35.739
19.7133     26.933   -36.216
20.0000     27.415   -36.724
20.2909     27.893   -37.261
20.5860     28.363   -37.795
20.8855     28.820   -38.222
21.1893     29.263   -38.506
21.4975     29.697   -38.743
21.8102     30.133   -39.011
22.1274     30.578   -39.332
22.4492     31.042   -39.665
22.7758     31.529   -39.955
23.1071     32.035   -40.276
23.4432     32.557   -40.672
23.7841     33.084   -41.263
24.1301     33.609   -42.216
24.4811     34.125   -43.388
24.8372     34.624   -44.548
25.1984     35.108   -45.583
25.5649     35.580   -46.416
25.9368     36.049   -47.140
26.3141     36.522   -47.885
26.6968     37.000   -48.724
27.0851     37.484   -49.703
27.4791     37.971   -50.792
27.8788     38.457   -51.908
28.2843     38.938   -52.956
28.6957     39.416   -53.943
29.1131     39.894   -54.930
29.5365     40.372   -55.955
29.9661     40.850   -57.074
30.4020     41.327   -58.217
30.8442     41.803   -59.346
31.2929     42.279   -60.493
31.7480     42.754   -61.693
32.2098     43.228   -63.031
32.6783     43.697   -64.513
33.1536     44.152   -65.857
33.6359     44.599   -66.851
34.1251     45.048   -67.408
34.6215     45.527   -67.882
35.1250     46.042   -68.612
35.6359     46.584   -69.781
36.1543     47.127   -71.215
36.6802     47.661   -72.746
37.2137     48.182   -74.225
37.7550     48.694   -75.635
38.3041     49.207   -77.102
38.8613     49.728   -78.848
39.4265     50.247   -80.706
40.0000     50.757   -82.474
40.5818     51.259   -84.007
41.1721     51.762   -85.454
41.7710     52.273   -87.000
42.3785     52.793   -88.815
42.9949     53.315   -90.927
43.6203     53.830   -93.254
44.2548     54.330   -95.654
44.8985     54.808   -97.969
45.5515     55.268  -100.093
46.2141     55.718  -102.048
46.8863     56.167  -103.928
47.5683     56.622  -105.818
48.2602     57.086  -107.796
48.9621     57.558  -109.883
49.6743     58.034  -112.057
50.3968     58.513  -114.303
51.1299     58.992  -116.603
51.8736     59.469  -118.942
52.6281     59.941  -121.335
53.3936     60.407  -123.802
54.1702     60.868  -126.351
54.9581     61.321  -128.966
55.7575     61.765  -131.643
56.5685     62.202  -134.386
57.3914     62.630  -137.165
58.2261     63.049  -139.958
59.0730     63.461  -142.783
59.9323     63.865  -145.667
60.8040     64.260  -148.611
61.6884     64.646  -151.604
62.5857     65.024  -154.645
63.4960     65.393  -157.738
64.4196     65.749  -160.875
65.3566     66.088  -164.056
66.3073     66.413  -167.275
67.2717     66.725  -170.517
68.2502     67.029  -173.761
69.2429     67.327  -177.005
70.2501     67.620   179.734
71.2719     67.901   176.428
72.3086     68.163   173.085
73.3603     68.404   169.743
74.4274     68.626   166.419
75.5099     68.833   163.124
76.6083     69.027   159.852
77.7226     69.211   156.588
78.8531     69.383   153.335
80.0000     69.540   150.094
81.1636     69.683   146.891
82.3442     69.814   143.756
83.5419     69.932   140.684
84.7570     70.040   137.666
85.9899     70.139   134.708
87.2406     70.231   131.803
88.5096     70.315   128.945
89.7970     70.392   126.139
91.1031     70.463   123.379
92.4282     70.532   120.660
93.7726     70.595   117.982
95.1366     70.653   115.346
96.5204     70.705   112.741
97.9243     70.751   110.168
99.3486     70.790   107.633
100.794     70.823   105.141
102.260     70.850   102.695
103.747     70.871   100.307
105.256     70.890    97.988
106.787     70.909    95.717
108.340     70.928    93.466
109.916     70.945    91.232
111.515     70.957    89.023
113.137     70.962    86.846
114.783     70.964    84.720
116.452     70.966    82.635
118.146     70.969    80.557
119.865     70.971    78.470
121.608     70.964    76.379
123.377     70.945    74.316
125.171     70.915    72.330
126.992     70.882    70.434
128.839     70.850    68.613
130.713     70.823    66.838
132.615     70.799    65.068
134.543     70.774    63.290
136.500     70.741    61.527
138.486     70.701    59.820
140.500     70.659    58.195
142.544     70.619    56.654
144.617     70.586    55.176
146.721     70.563    53.723
148.855     70.545    52.260
151.020     70.528    50.775
153.217     70.509    49.275
155.445     70.485    47.787
157.706     70.460    46.320
160.000     70.432    44.873
162.327     70.402    43.460
164.688     70.374    42.084
167.084     70.348    40.738
169.514     70.326    39.417
171.980     70.309    38.088
174.481     70.290    36.729
177.019     70.267    35.360
179.594     70.238    33.993
182.206     70.203    32.652
184.856     70.167    31.362
187.545     70.133    30.113
190.273     70.101    28.885
193.041     70.072    27.680
195.849     70.047    26.492
198.697     70.027    25.296
201.587     70.010    24.051
204.520     69.989    22.734
207.494     69.953    21.385
210.512     69.899    20.083
213.574     69.833    18.908
216.681     69.769    17.878
219.833     69.719    16.930
223.030     69.686    15.991
226.274     69.665    14.998
229.565     69.648    13.931
232.905     69.628    12.837
236.292     69.605    11.757
239.729     69.583    10.683
243.216     69.561     9.595
246.754     69.534     8.488
250.343     69.500     7.388
253.984     69.463     6.330
257.678     69.425     5.328
261.426     69.398     4.377
265.229     69.387     3.393
269.087     69.381     2.290
273.001     69.367     1.099
276.972     69.339    -0.126
281.000     69.295    -1.302
285.088     69.246    -2.336
289.234     69.210    -3.281
293.441     69.193    -4.231
297.709     69.187    -5.254
302.040     69.183    -6.379
306.433     69.176    -7.558
310.890     69.167    -8.820
315.412     69.144   -10.189
320.000     69.103   -11.603
324.655     69.041   -13.052
329.377     68.955   -14.450
334.168     68.861   -15.684
339.028     68.775   -16.815
343.959     68.701   -17.950
348.962     68.627   -19.152
354.038     68.535   -20.416
359.188     68.419   -21.609
364.412     68.291   -22.650
369.713     68.168   -23.568
375.090     68.058   -24.403
380.546     67.962   -25.220
386.081     67.876   -26.091
391.697     67.780   -27.017
397.394     67.669   -27.946
403.175     67.545   -28.832
409.039     67.398   -29.593
414.989     67.248   -30.106
421.025     67.118   -30.356
427.149     67.027   -30.436
433.362     66.990   -30.503
439.665     66.996   -30.817
446.060     67.007   -31.467
452.548     66.998   -32.241
459.131     66.980   -33.014
465.809     66.972   -33.847
472.584     66.973   -34.789
479.458     66.977   -35.938
486.432     66.957   -37.401
493.507     66.867   -39.007
500.686     66.710   -40.371
507.968     66.524   -41.306
515.357     66.337   -41.824
522.853     66.188   -41.938
530.458     66.117   -41.870
538.174     66.118   -41.971
546.002     66.177   -42.409
553.943     66.265   -43.399
562.001     66.317   -45.105
570.175     66.261   -47.321
578.469     66.057   -49.454
586.883     65.747   -50.822
595.419     65.424   -51.296
604.080     65.181   -51.104
612.866     65.074   -50.730
621.780     65.049   -50.925
630.824     65.003   -51.668
640.000     64.893   -52.450
649.309     64.731   -52.969
658.753     64.589   -52.954
668.335     64.532   -52.688
678.056     64.538   -52.794
687.919     64.554   -53.305
697.925     64.552   -54.078
708.077     64.517   -55.250
718.376     64.399   -56.782
728.825     64.131   -57.980
739.426     63.816   -58.144
750.181     63.586   -57.470
761.093     63.464   -56.517
772.163     63.403   -55.635
783.394     63.395   -54.702
794.789     63.461   -53.847
806.349     63.595   -53.327
818.078     63.784   -53.161
829.977     64.019   -53.609
842.050     64.202   -54.824
854.298     64.269   -56.184
866.724     64.271   -57.428
879.330     64.216   -58.585
892.120     64.113   -59.119
905.097     64.066   -59.024
918.262     64.114   -58.768
931.618     64.258   -58.537
945.169     64.487   -58.709
958.917     64.729   -59.557
972.864     64.975   -60.942
987.015     65.209   -62.714
1001.37     65.389   -64.646
1015.94     65.564   -66.496
1030.71     65.753   -68.536
1045.71     65.884   -70.934
1060.92     65.967   -73.450
1076.35     66.031   -76.140
1092.00     66.038   -78.993
1107.89     65.987   -81.777
1124.00     65.895   -84.479
1140.35     65.754   -87.004
1156.94     65.564   -89.233
1173.77     65.347   -90.814
1190.84     65.178   -91.629
1208.16     65.102   -92.030
1225.73     65.129   -92.236
1243.56     65.276   -92.767
1261.65     65.479   -94.042
1280.00     65.686   -96.054
1298.62     65.832   -98.961
1317.51     65.837  -101.986
1336.67     65.779  -104.582
1356.11     65.715  -107.128
1375.84     65.607  -109.422
1395.85     65.523  -111.423
1416.15     65.449  -113.484
1436.75     65.332  -115.400
1457.65     65.220  -116.972
1478.85     65.168  -118.182
1500.36     65.211  -119.474
1522.19     65.314  -121.243
1544.33     65.397  -123.412
1566.79     65.467  -125.969
1589.58     65.485  -128.726
1612.70     65.493  -131.337
1636.16     65.563  -134.271
1659.95     65.611  -137.719
1684.10     65.614  -141.536
1708.60     65.531  -145.808
1733.45     65.258  -149.857
1758.66     64.874  -152.662
1784.24     64.474  -154.345
1810.19     64.120  -155.067
1836.52     63.945  -155.163
1863.24     63.921  -155.655
1890.34     64.039  -156.505
1917.83     64.222  -157.951
1945.73     64.373  -160.143
1974.03     64.503  -162.652
2002.74     64.543  -165.609
2031.87     64.522  -168.766
2061.43     64.454  -171.670
2091.41     64.327  -174.325
2121.83     64.217  -176.630
2152.69     64.115  -178.432
2184.01     64.068   179.917
2215.77     64.088   178.255
2248.00     64.165   176.148
2280.70     64.265   173.471
2313.87     64.347   170.328
2347.53     64.379   166.695
2381.68     64.327   163.123
2416.32     64.175   160.144
2451.46     63.972   157.691
2487.12     63.787   155.883
2523.30     63.673   154.301
2560.00     63.631   153.112
2597.24     63.714   151.396
2635.01     63.796   149.067
2673.34     63.790   146.325
2712.23     63.717   142.938
2751.68     63.493   139.288
2791.70     63.180   136.251
2832.31     62.953   134.289
2873.50     62.810   133.012
2915.30     62.845   131.825
2957.70     62.995   130.871
3000.72     63.138   129.446
3044.37     63.270   127.454
3088.65     63.247   124.937
3133.58     63.084   123.300
3179.16     63.179   122.375
3225.40     63.253   119.597
3272.31     63.214   117.127
3319.91     63.187   115.128
3368.20     63.199   112.750
3417.19     63.192   110.363
3466.89     63.182   108.058
3517.32     63.153   105.282
3568.48     62.990   102.581
3620.39     62.789   100.808
3673.05     62.635    99.180
3726.47     62.423    97.747
3780.67     62.329    96.768
3835.67     62.251    95.013
3891.46     62.083    93.599
3948.06     62.009    92.476
4005.49     61.881    91.173
4063.75     61.814    90.683
4122.86     61.884    89.552
4182.82     61.834    87.726
4243.66     61.766    85.771
4305.39     61.611    83.719
4368.01     61.357    82.365
4431.55     61.143    81.427
4496.01     60.999    80.763
4561.40     60.874    79.856
4627.75     60.729    78.757
4695.06     60.582    77.804
4763.35     60.354    77.110
4832.64     60.169    77.174
4902.93     60.104    77.210
4974.24     60.089    77.214
5046.60     60.241    76.871
5120.00     60.355    74.786
5194.47     60.367    72.142
5270.03     60.227    68.781
5346.68     59.786    65.632
5424.45     59.249    63.872
5503.35     58.647    63.325
5583.40     58.098    64.289
5664.61     57.779    65.362
5747.01     57.494    66.153
5830.60     57.238    67.160
5915.41     57.044    68.236
6001.45     56.812    69.118
6088.74     56.606    69.855
6177.30     56.375    70.366
6267.15     55.979    70.786
6358.31     55.571    71.983
6450.80     55.174    74.788
6544.62     54.827    77.613
6639.82     54.837    81.852
6736.40     55.033    85.271
6834.38     55.270    86.847
6933.79     55.489    88.597
7034.64     55.609    89.800
7136.96     55.678    90.011
7240.77     55.646    91.311
7346.09     55.561    92.596
7452.94     55.559    94.314
7561.35     55.530    95.998
7671.33     55.542    97.050
7782.91     55.566    97.636
7896.12     55.598    97.579
8010.97     55.614    96.824
8127.49     55.508    96.508
8245.71     55.336    96.708
8365.65     55.190    98.035
8487.33     55.200   100.362
8610.78     55.414   102.458
8736.03     55.723   104.138
8863.09     56.182   105.223
8992.01     56.617   104.615
9122.80     56.840   103.272
9255.50     56.899   101.799
9390.12     56.652   100.535
9526.70     56.237   100.198
9665.27     55.688   100.969
9805.86     55.079   103.302
9948.49     54.756   106.573
10093.2     54.707   109.603
10240.0     54.857   111.911
10388.9     55.027   112.616
10540.1     55.076   112.696
10693.4     54.984   112.726
10848.9     54.672   113.952
11006.7     54.441   116.706
11166.8     54.355   119.986
11329.2     54.374   123.257
11494.0     54.526   126.606
11661.2     54.793   129.569
11830.8     55.160   131.921
12002.9     55.573   133.469
12177.5     56.001   134.068
12354.6     56.383   133.594
12534.3     56.685   132.371
12716.6     56.930   130.206
12901.6     56.955   127.317
13089.2     56.771   124.945
13279.6     56.520   123.060
13472.8     56.233   121.604
13668.8     55.896   120.200
13867.6     55.462   118.550
14069.3     54.856   117.714
14273.9     54.167   117.792
14481.5     53.364   118.932
14692.2     52.546   121.529
14905.9     51.879   124.748
15122.7     51.296   128.538
15342.7     50.835   131.874
15565.8     50.406   134.934
15792.2     49.882   138.253
16021.9     49.410   141.806
16255.0     48.898   145.992
16491.4     48.388   151.055
16731.3     48.019   157.145
16974.7     47.852   164.388
17221.6     48.002   171.543
17472.1     48.436   178.051
17726.2     48.949  -176.927
17984.0     49.470  -173.880
18245.6     49.780  -172.364
18511.0     49.873  -171.137
18780.2     49.865  -169.596
19053.4     49.927  -167.401
19330.5     50.091  -165.832
19611.7     50.340  -165.356
19897.0     50.602  -166.092
20186.4     50.744  -167.822
20480.0     50.704  -170.197
20777.9     50.509  -172.186
21080.1     50.116  -173.414
21386.7     49.598  -173.888
21697.8     48.970  -172.751
22013.4     48.192  -170.204
22333.6     47.394  -166.175
22658.4     46.704  -160.656
22988.0     46.152  -155.529
23322.4     45.679  -150.961
