Freq[Hz]     dBSPL  Phase[Deg]
Freq[Hz]     dBSPL  Phase[Deg]
5.00000    -17.632   -10.825
5.07273    -17.277   -10.916
5.14651    -16.890   -11.016
5.22137    -16.457   -11.127
5.29732    -16.006   -11.243
5.37437    -15.534   -11.367
5.45254    -15.062   -11.492
5.53185    -14.590   -11.619
5.61231    -14.118   -11.748
5.69394    -13.647   -11.879
5.77676    -13.175   -12.011
5.86079    -12.703   -12.146
5.94604    -12.231   -12.283
6.03252    -11.759   -12.421
6.12027    -11.287   -12.562
6.20929    -10.815   -12.705
6.29961    -10.343   -12.849
6.39124     -9.870   -12.996
6.48420     -9.398   -13.146
6.57851     -8.926   -13.297
6.67420     -8.454   -13.450
6.77128     -7.982   -13.606
6.86977     -7.509   -13.764
6.96969     -7.037   -13.925
7.07107     -6.565   -14.088
7.17392     -6.092   -14.253
7.27827     -5.620   -14.420
7.38413     -5.148   -14.591
7.49154     -4.675   -14.763
7.60050     -4.203   -14.938
7.71105     -3.730   -15.116
7.82321     -3.257   -15.297
7.93701     -2.785   -15.480
8.05245     -2.312   -15.666
8.16958     -1.839   -15.854
8.28841     -1.366   -16.046
8.40896     -0.894   -16.240
8.53128     -0.421   -16.437
8.65537      0.052   -16.637
8.78126      0.525   -16.840
8.90899      0.998   -17.046
9.03857      1.471   -17.255
9.17004      1.945   -17.468
9.30342      2.418   -17.683
9.43874      2.891   -17.902
9.57603      3.364   -18.124
9.71532      3.838   -18.349
9.85663      4.311   -18.578
10.0000      4.785   -18.810
10.1455      5.259   -19.045
10.2930      5.732   -19.284
10.4427      6.206   -19.527
10.5946      6.680   -19.774
10.7487      7.154   -20.024
10.9051      7.628   -20.278
11.0637      8.102   -20.535
11.2246      8.576   -20.797
11.3879      9.050   -21.063
11.5535      9.525   -21.332
11.7216      9.999   -21.606
11.8921     10.474   -21.884
12.0650     10.949   -22.166
12.2405     11.423   -22.453
12.4186     11.898   -22.743
12.5992     12.373   -23.039
12.7825     12.848   -23.339
12.9684     13.324   -23.643
13.1570     13.799   -23.952
13.3484     14.274   -24.266
13.5426     14.750   -24.585
13.7395     15.226   -24.909
13.9394     15.702   -25.237
14.1421     16.178   -25.571
14.3478     16.654   -25.910
14.5565     17.130   -26.255
14.7683     17.606   -26.604
14.9831     18.083   -26.959
15.2010     18.560   -27.320
15.4221     19.037   -27.687
15.6464     19.514   -28.059
15.8740     19.991   -28.437
16.1049     20.468   -28.821
16.3392     20.946   -29.211
16.5768     21.424   -29.608
16.8179     21.902   -30.011
17.0626     22.380   -30.420
17.3107     22.859   -30.836
17.5625     23.337   -31.258
17.8180     23.816   -31.688
18.0771     24.295   -32.124
18.3401     24.774   -32.567
18.6068     25.254   -33.018
18.8775     25.734   -33.476
19.1521     26.214   -33.942
19.4306     26.694   -34.415
19.7133     27.173   -34.910
20.0000     27.649   -35.443
20.2909     28.117   -36.013
20.5860     28.573   -36.582
20.8855     29.017   -37.012
21.1893     29.452   -37.251
21.4975     29.886   -37.410
21.8102     30.332   -37.595
22.1274     30.794   -37.873
22.4492     31.272   -38.247
22.7758     31.766   -38.664
23.1071     32.268   -39.139
23.4432     32.776   -39.659
23.7841     33.284   -40.314
24.1301     33.791   -41.247
24.4811     34.293   -42.348
24.8372     34.784   -43.430
25.1984     35.267   -44.403
25.5649     35.742   -45.206
25.9368     36.214   -45.925
26.3141     36.685   -46.673
26.6968     37.159   -47.506
27.0851     37.637   -48.460
27.4791     38.117   -49.505
27.8788     38.597   -50.565
28.2843     39.078   -51.566
28.6957     39.559   -52.522
29.1131     40.038   -53.492
29.5365     40.516   -54.506
29.9661     40.993   -55.606
30.4020     41.468   -56.721
30.8442     41.943   -57.820
31.2929     42.419   -58.944
31.7480     42.893   -60.127
32.2098     43.364   -61.432
32.6783     43.829   -62.851
33.1536     44.287   -64.110
33.6359     44.745   -65.037
34.1251     45.213   -65.583
34.6215     45.704   -66.109
35.1250     46.222   -66.917
35.6359     46.757   -68.130
36.1543     47.294   -69.557
36.6802     47.824   -71.052
37.2137     48.345   -72.498
37.7550     48.859   -73.888
38.3041     49.370   -75.362
38.8613     49.884   -77.112
39.4265     50.396   -78.943
40.0000     50.905   -80.677
40.5818     51.411   -82.201
41.1721     51.918   -83.674
41.7710     52.427   -85.272
42.3785     52.936   -87.128
42.9949     53.441   -89.238
43.6203     53.938   -91.503
44.2548     54.422   -93.786
44.8985     54.895   -95.947
45.5515     55.360   -97.923
46.2141     55.821   -99.766
46.8863     56.284  -101.579
47.5683     56.750  -103.444
48.2602     57.223  -105.422
48.9621     57.699  -107.515
49.6743     58.178  -109.691
50.3968     58.656  -111.931
51.1299     59.134  -114.215
51.8736     59.608  -116.534
52.6281     60.079  -118.900
53.3936     60.545  -121.333
54.1702     61.005  -123.844
54.9581     61.458  -126.418
55.7575     61.902  -129.048
56.5685     62.338  -131.739
57.3914     62.768  -134.463
58.2261     63.191  -137.205
59.0730     63.607  -139.989
59.9323     64.015  -142.840
60.8040     64.413  -145.758
61.6884     64.802  -148.729
62.5857     65.181  -151.750
63.4960     65.551  -154.821
64.4196     65.907  -157.930
65.3566     66.247  -161.070
66.3073     66.573  -164.239
67.2717     66.887  -167.426
68.2502     67.194  -170.621
69.2429     67.496  -173.838
70.2501     67.790  -177.098
71.2719     68.068   179.590
72.3086     68.324   176.255
73.3603     68.559   172.945
74.4274     68.777   169.679
75.5099     68.981   166.462
76.6083     69.175   163.275
77.7226     69.359   160.095
78.8531     69.532   156.926
80.0000     69.691   153.770
81.1636     69.838   150.650
82.3442     69.974   147.589
83.5419     70.099   144.572
84.7570     70.213   141.596
85.9899     70.318   138.669
87.2406     70.412   135.796
88.5096     70.497   132.978
89.7970     70.575   130.217
91.1031     70.648   127.506
92.4282     70.718   124.833
93.7726     70.782   122.203
95.1366     70.841   119.615
96.5204     70.894   117.059
97.9243     70.941   114.534
99.3486     70.980   112.051
100.794     71.012   109.614
102.260     71.038   107.229
103.747     71.060   104.909
105.256     71.080   102.652
106.787     71.103   100.427
108.340     71.124    98.204
109.916     71.139    95.991
111.515     71.146    93.807
113.137     71.144    91.671
114.783     71.137    89.606
116.452     71.129    87.603
118.146     71.123    85.627
119.865     71.116    83.662
121.608     71.103    81.710
123.377     71.082    79.796
125.171     71.055    77.952
126.992     71.024    76.181
128.839     70.993    74.474
130.713     70.966    72.822
132.615     70.942    71.200
134.543     70.919    69.598
136.500     70.896    68.024
138.486     70.874    66.477
140.500     70.854    64.950
142.544     70.836    63.439
144.617     70.818    61.939
146.721     70.800    60.441
148.855     70.779    58.948
151.020     70.754    57.465
153.217     70.725    56.002
155.445     70.691    54.573
157.706     70.654    53.178
160.000     70.612    51.823
162.327     70.567    50.532
164.688     70.523    49.316
167.084     70.485    48.162
169.514     70.457    47.050
171.980     70.439    45.938
174.481     70.425    44.790
177.019     70.409    43.605
179.594     70.387    42.402
182.206     70.356    41.221
184.856     70.323    40.093
187.545     70.292    39.013
190.273     70.264    37.962
193.041     70.240    36.931
195.849     70.219    35.903
198.697     70.200    34.866
201.587     70.178    33.809
204.520     70.151    32.734
207.494     70.113    31.687
210.512     70.068    30.720
213.574     70.022    29.875
216.681     69.988    29.138
219.833     69.972    28.438
223.030     69.974    27.692
226.274     69.986    26.827
229.565     69.993    25.847
232.905     69.989    24.831
236.292     69.977    23.830
239.729     69.959    22.867
243.216     69.937    21.953
246.754     69.916    21.083
250.343     69.896    20.251
253.984     69.880    19.468
257.678     69.875    18.740
261.426     69.890    17.962
265.229     69.912    17.017
269.087     69.917    15.923
273.001     69.900    14.775
276.972     69.859    13.690
281.000     69.807    12.803
285.088     69.776    12.110
289.234     69.777    11.427
293.441     69.800    10.578
297.709     69.821     9.521
302.040     69.818     8.337
306.433     69.790     7.158
310.890     69.744     6.066
315.412     69.689     5.081
320.000     69.636     4.168
324.655     69.584     3.265
329.377     69.528     2.367
334.168     69.473     1.488
339.028     69.413     0.628
343.959     69.343    -0.166
348.962     69.273    -0.837
354.038     69.208    -1.397
359.188     69.154    -1.875
364.412     69.120    -2.303
369.713     69.111    -2.793
375.090     69.111    -3.426
380.546     69.108    -4.187
386.081     69.094    -5.037
391.697     69.064    -5.919
397.394     69.012    -6.828
403.175     68.928    -7.658
409.039     68.825    -8.219
414.989     68.733    -8.483
421.025     68.676    -8.508
427.149     68.674    -8.413
433.362     68.734    -8.452
439.665     68.825    -8.861
446.060     68.913    -9.675
452.548     68.972   -10.773
459.131     68.987   -12.013
465.809     68.962   -13.217
472.584     68.914   -14.284
479.458     68.858   -15.259
486.432     68.793   -16.183
493.507     68.710   -17.015
500.686     68.614   -17.644
507.968     68.521   -18.012
515.357     68.443   -18.095
522.853     68.412   -17.912
530.458     68.460   -17.694
538.174     68.577   -17.711
546.002     68.749   -18.145
553.943     68.932   -19.136
562.001     69.072   -20.577
570.175     69.148   -22.208
578.469     69.152   -23.847
586.883     69.101   -25.272
595.419     69.029   -26.378
604.080     68.966   -27.322
612.866     68.926   -28.212
621.780     68.900   -29.094
630.824     68.872   -30.066
640.000     68.841   -31.050
649.309     68.822   -31.989
658.753     68.827   -33.052
668.335     68.845   -34.302
678.056     68.865   -35.759
687.919     68.871   -37.383
697.925     68.851   -39.021
708.077     68.827   -40.790
718.376     68.748   -42.999
728.825     68.515   -45.126
739.426     68.226   -46.366
750.181     67.995   -47.092
761.093     67.806   -47.793
772.163     67.634   -48.379
783.394     67.490   -48.820
794.789     67.378   -49.210
806.349     67.309   -49.582
818.078     67.273   -50.173
829.977     67.225   -51.090
842.050     67.143   -52.249
854.298     67.027   -53.691
866.724     66.841   -55.425
879.330     66.546   -57.149
892.120     66.159   -58.225
905.097     65.723   -58.209
918.262     65.333   -56.972
931.618     65.104   -54.870
945.169     65.057   -52.713
958.917     65.176   -51.252
972.864     65.331   -50.860
987.015     65.408   -50.889
1001.37     65.478   -50.678
1015.94     65.580   -50.339
1030.71     65.730   -49.960
1045.71     65.962   -49.877
1060.92     66.216   -50.829
1076.35     66.389   -52.935
1092.00     66.411   -55.570
1107.89     66.293   -58.093
1124.00     66.075   -60.138
1140.35     65.807   -61.229
1156.94     65.565   -61.386
1173.77     65.397   -61.013
1190.84     65.294   -60.370
1208.16     65.267   -59.708
1225.73     65.338   -59.347
1243.56     65.464   -59.464
1261.65     65.587   -60.127
1280.00     65.692   -60.960
1298.62     65.780   -61.653
1317.51     65.868   -62.460
1336.67     65.952   -63.423
1356.11     66.025   -64.543
1375.84     66.062   -66.026
1395.85     66.035   -67.610
1416.15     65.949   -68.937
1436.75     65.877   -69.769
1457.65     65.863   -70.276
1478.85     65.898   -70.934
1500.36     65.953   -71.671
1522.19     66.003   -72.355
1544.33     66.031   -73.171
1566.79     66.078   -74.000
1589.58     66.153   -74.837
1612.70     66.222   -75.851
1636.16     66.292   -77.016
1659.95     66.333   -78.088
1684.10     66.347   -78.948
1708.60     66.419   -79.804
1733.45     66.521   -80.850
1758.66     66.644   -82.003
1784.24     66.812   -83.324
1810.19     66.954   -84.560
1836.52     67.114   -85.593
1863.24     67.327   -86.770
1890.34     67.564   -88.537
1917.83     67.794   -90.677
1945.73     68.022   -93.143
1974.03     68.258   -96.049
2002.74     68.485   -99.091
2031.87     68.697  -102.527
2061.43     68.880  -106.339
2091.41     69.039  -110.387
2121.83     69.131  -114.942
2152.69     69.095  -119.353
2184.01     69.014  -123.435
2215.77     68.866  -127.577
2248.00     68.648  -131.330
2280.70     68.446  -134.795
2313.87     68.253  -138.250
2347.53     68.136  -141.619
2381.68     68.093  -145.024
2416.32     68.115  -149.019
2451.46     68.133  -153.558
2487.12     68.034  -158.256
2523.30     67.826  -162.950
2560.00     67.537  -167.132
2597.24     67.231  -170.701
2635.01     67.016  -173.950
2673.34     66.938  -177.072
2712.23     66.968   178.798
2751.68     66.975   173.651
2791.70     66.955   167.563
2832.31     66.826   160.647
2873.50     66.569   153.828
2915.30     66.300   147.614
2957.70     66.029   141.569
3000.72     65.756   135.649
3044.37     65.455   129.075
3088.65     65.006   122.246
3133.58     64.474   116.415
3179.16     64.244   110.090
3225.40     63.816   101.994
3272.31     63.227    94.803
3319.91     62.718    88.139
3368.20     62.309    82.110
3417.19     62.073    75.862
3466.89     62.041    68.527
3517.32     62.069    59.795
3568.48     62.082    50.274
3620.39     62.164    40.060
3673.05     62.241    29.205
3726.47     62.359    18.163
3780.67     62.565     6.628
3835.67     62.784    -5.985
3891.46     62.914   -19.144
3948.06     62.936   -31.454
4005.49     62.931   -42.644
4063.75     62.997   -52.664
4122.86     63.105   -62.120
4182.82     63.317   -71.343
4243.66     63.644   -80.816
4305.39     63.968   -91.188
4368.01     64.222  -101.868
4431.55     64.392  -112.098
4496.01     64.490  -121.962
4561.40     64.582  -131.009
4627.75     64.693  -139.891
4695.06     64.823  -148.611
4763.35     65.000  -157.176
4832.64     65.174  -165.800
4902.93     65.383  -174.479
4974.24     65.583   176.847
5046.60     65.818   168.063
5120.00     66.135   158.472
5194.47     66.413   148.053
5270.03     66.655   136.879
5346.68     66.794   124.906
5424.45     66.772   113.002
5503.35     66.664   101.404
5583.40     66.495    90.264
5664.61     66.361    79.685
5747.01     66.304    68.952
5830.60     66.220    57.979
5915.41     66.191    47.035
6001.45     66.181    35.554
6088.74     66.122    23.639
6177.30     66.084    11.657
6267.15     65.994    -1.047
6358.31     65.808   -13.431
6450.80     65.646   -25.320
6544.62     65.443   -37.522
6639.82     65.212   -48.714
6736.40     65.139   -59.433
6834.38     65.211   -71.051
6933.79     65.311   -83.425
7034.64     65.447   -96.418
7136.96     65.580  -110.257
7240.77     65.635  -124.880
7346.09     65.602  -139.567
7452.94     65.518  -153.716
7561.35     65.481  -167.923
7671.33     65.484   177.666
7782.91     65.482   162.995
7896.12     65.514   147.851
8010.97     65.527   131.953
8127.49     65.411   115.316
8245.71     65.180    98.713
8365.65     64.862    82.243
8487.33     64.390    65.881
8610.78     63.865    50.985
8736.03     63.519    36.519
8863.09     63.282    21.594
8992.01     63.120     6.652
9122.80     63.108    -8.978
9255.50     63.096   -25.607
9390.12     63.005   -42.247
9526.70     62.944   -58.782
9665.27     62.925   -75.096
9805.86     63.037   -91.591
9948.49     63.184  -109.078
10093.2     63.306  -127.210
10240.0     63.449  -146.128
10388.9     63.487  -166.379
10540.1     63.378   173.342
10693.4     63.247   153.407
10848.9     63.107   132.992
11006.7     62.904   112.197
11166.8     62.658    91.293
11329.2     62.325    70.289
11494.0     61.855    49.932
11661.2     61.447    30.977
11830.8     61.212    12.225
12002.9     61.140    -7.095
12177.5     61.202   -27.345
12354.6     61.349   -49.026
12534.3     61.437   -72.299
12716.6     61.419   -96.240
12901.6     61.360  -121.286
13089.2     61.001  -146.968
13279.6     60.473  -171.044
13472.8     60.075   165.018
13668.8     59.504   141.162
13867.6     59.061   118.495
14069.3     58.780    94.802
14273.9     58.478    70.851
14481.5     58.342    46.389
14692.2     58.185    20.204
14905.9     57.956    -6.091
15122.7     57.731   -33.449
15342.7     57.339   -61.091
15565.8     56.929   -88.430
15792.2     56.499  -115.795
16021.9     56.111  -143.219
16255.0     55.716  -171.315
16491.4     55.235   160.364
16731.3     54.691   132.693
16974.7     54.102   105.012
17221.6     53.460    78.062
17472.1     53.022    51.337
17726.2     52.846    24.080
17984.0     52.724    -5.358
18245.6     52.434   -35.763
18511.0     51.947   -66.397
18780.2     51.290   -96.325
19053.4     50.514  -125.292
19330.5     49.701  -154.268
19611.7     49.259   177.722
19897.0     49.006   151.565
20186.4     49.304   125.093
20480.0     50.233    98.760
20777.9     51.540    70.963
21080.1     53.084    38.900
21386.7     54.512     2.484
21697.8     55.610   -37.544
22013.4     56.602   -80.037
22333.6     57.329  -123.748
22658.4     57.865  -168.953
22988.0     58.171   144.013
23322.4     57.914    95.931
