Freq[Hz]     dBSPL  Phase[Deg]
Freq[Hz]     dBSPL  Phase[Deg]
5.00000    -18.367   -12.893
5.07273    -18.010   -12.986
5.14651    -17.620   -13.087
5.22137    -17.184   -13.200
5.29732    -16.729   -13.320
5.37437    -16.253   -13.446
5.45254    -15.777   -13.573
5.53185    -15.301   -13.702
5.61231    -14.826   -13.833
5.69394    -14.350   -13.966
5.77676    -13.874   -14.100
5.86079    -13.398   -14.236
5.94604    -12.922   -14.374
6.03252    -12.446   -14.513
6.12027    -11.971   -14.655
6.20929    -11.495   -14.798
6.29961    -11.019   -14.942
6.39124    -10.543   -15.089
6.48420    -10.067   -15.238
6.57851     -9.591   -15.388
6.67420     -9.115   -15.541
6.77128     -8.639   -15.696
6.86977     -8.162   -15.852
6.96969     -7.686   -16.012
7.07107     -7.210   -16.173
7.17392     -6.733   -16.337
7.27827     -6.257   -16.503
7.38413     -5.780   -16.672
7.49154     -5.304   -16.843
7.60050     -4.827   -17.017
7.71105     -4.350   -17.194
7.82321     -3.873   -17.373
7.93701     -3.396   -17.555
8.05245     -2.920   -17.741
8.16958     -2.443   -17.929
8.28841     -1.965   -18.120
8.40896     -1.488   -18.314
8.53128     -1.011   -18.511
8.65537     -0.534   -18.711
8.78126     -0.057   -18.915
8.90899      0.420   -19.121
9.03857      0.898   -19.331
9.17004      1.375   -19.544
9.30342      1.852   -19.759
9.43874      2.330   -19.979
9.57603      2.807   -20.201
9.71532      3.285   -20.427
9.85663      3.762   -20.656
10.0000      4.240   -20.888
10.1455      4.717   -21.123
10.2930      5.195   -21.362
10.4427      5.673   -21.605
10.5946      6.151   -21.851
10.7487      6.629   -22.101
10.9051      7.107   -22.354
11.0637      7.585   -22.611
11.2246      8.063   -22.872
11.3879      8.542   -23.137
11.5535      9.020   -23.407
11.7216      9.499   -23.680
11.8921      9.978   -23.957
12.0650     10.457   -24.239
12.2405     10.936   -24.525
12.4186     11.415   -24.816
12.5992     11.894   -25.111
12.7825     12.373   -25.411
12.9684     12.852   -25.716
13.1570     13.332   -26.025
13.3484     13.811   -26.339
13.5426     14.291   -26.658
13.7395     14.771   -26.981
13.9394     15.251   -27.310
14.1421     15.731   -27.644
14.3478     16.211   -27.982
14.5565     16.692   -28.326
14.7683     17.172   -28.676
14.9831     17.653   -29.031
15.2010     18.134   -29.391
15.4221     18.615   -29.757
15.6464     19.096   -30.129
15.8740     19.577   -30.507
16.1049     20.059   -30.890
16.3392     20.541   -31.280
16.5768     21.023   -31.677
16.8179     21.505   -32.079
17.0626     21.987   -32.488
17.3107     22.470   -32.904
17.5625     22.952   -33.326
17.8180     23.435   -33.756
18.0771     23.919   -34.192
18.3401     24.402   -34.635
18.6068     24.886   -35.085
18.8775     25.369   -35.543
19.1521     25.854   -36.008
19.4306     26.338   -36.481
19.7133     26.822   -36.980
20.0000     27.305   -37.528
20.2909     27.783   -38.129
20.5860     28.251   -38.736
20.8855     28.702   -39.181
21.1893     29.133   -39.395
21.4975     29.554   -39.504
21.8102     29.981   -39.628
22.1274     30.425   -39.846
22.4492     30.898   -40.163
22.7758     31.403   -40.522
23.1071     31.927   -40.960
23.4432     32.462   -41.469
23.7841     32.993   -42.152
24.1301     33.513   -43.179
24.4811     34.019   -44.404
24.8372     34.507   -45.585
25.1984     34.984   -46.621
25.5649     35.455   -47.447
25.9368     35.925   -48.171
26.3141     36.400   -48.935
26.6968     36.879   -49.807
27.0851     37.361   -50.827
27.4791     37.843   -51.950
27.8788     38.322   -53.085
28.2843     38.799   -54.134
28.6957     39.275   -55.109
29.1131     39.753   -56.080
29.5365     40.234   -57.104
29.9661     40.718   -58.245
30.4020     41.200   -59.438
30.8442     41.676   -60.637
31.2929     42.148   -61.857
31.7480     42.613   -63.101
32.2098     43.074   -64.431
32.6783     43.534   -65.861
33.1536     43.990   -67.139
33.6359     44.448   -68.105
34.1251     44.913   -68.714
34.6215     45.399   -69.291
35.1250     45.912   -70.113
35.6359     46.442   -71.305
36.1543     46.979   -72.698
36.6802     47.518   -74.182
37.2137     48.049   -75.667
37.7550     48.572   -77.158
38.3041     49.089   -78.756
38.8613     49.604   -80.609
39.4265     50.112   -82.512
40.0000     50.614   -84.271
40.5818     51.115   -85.788
41.1721     51.619   -87.243
41.7710     52.130   -88.823
42.3785     52.648   -90.676
42.9949     53.166   -92.810
43.6203     53.678   -95.135
44.2548     54.177   -97.522
44.8985     54.660   -99.831
45.5515     55.125  -101.967
46.2141     55.581  -103.954
46.8863     56.034  -105.881
47.5683     56.492  -107.824
48.2602     56.957  -109.853
48.9621     57.428  -111.987
49.6743     57.904  -114.202
50.3968     58.383  -116.487
51.1299     58.862  -118.826
51.8736     59.339  -121.203
52.6281     59.811  -123.634
53.3936     60.278  -126.139
54.1702     60.738  -128.724
54.9581     61.191  -131.377
55.7575     61.636  -134.092
56.5685     62.073  -136.873
57.3914     62.502  -139.695
58.2261     62.922  -142.532
59.0730     63.335  -145.400
59.9323     63.740  -148.324
60.8040     64.137  -151.309
61.6884     64.524  -154.342
62.5857     64.903  -157.424
63.4960     65.274  -160.562
64.4196     65.631  -163.753
65.3566     65.970  -166.991
66.3073     66.294  -170.270
67.2717     66.604  -173.571
68.2502     66.903  -176.864
69.2429     67.197   179.856
70.2501     67.487   176.571
71.2719     67.767   173.251
72.3086     68.031   169.895
73.3603     68.276   166.537
74.4274     68.502   163.186
75.5099     68.712   159.852
76.6083     68.910   156.533
77.7226     69.095   153.219
78.8531     69.267   149.923
80.0000     69.425   146.648
81.1636     69.568   143.426
82.3442     69.702   140.289
83.5419     69.828   137.211
84.7570     69.947   134.165
85.9899     70.059   131.150
87.2406     70.163   128.158
88.5096     70.256   125.193
89.7970     70.339   122.272
91.1031     70.414   119.403
92.4282     70.485   116.579
93.7726     70.550   113.798
95.1366     70.607   111.061
96.5204     70.658   108.363
97.9243     70.703   105.706
99.3486     70.741   103.100
100.794     70.775   100.541
102.260     70.805    98.022
103.747     70.830    95.548
105.256     70.850    93.124
106.787     70.868    90.740
108.340     70.884    88.385
109.916     70.896    86.063
111.515     70.902    83.780
113.137     70.904    81.548
114.783     70.904    79.381
116.452     70.908    77.257
118.146     70.916    75.130
119.865     70.924    72.982
121.608     70.924    70.811
123.377     70.911    68.648
125.171     70.884    66.552
126.992     70.851    64.552
128.839     70.818    62.637
130.713     70.790    60.781
132.615     70.766    58.947
134.543     70.743    57.115
136.500     70.716    55.301
138.486     70.687    53.524
140.500     70.655    51.797
142.544     70.624    50.129
144.617     70.596    48.519
146.721     70.575    46.944
148.855     70.561    45.372
151.020     70.550    43.776
153.217     70.539    42.149
155.445     70.522    40.503
157.706     70.497    38.865
160.000     70.464    37.268
162.327     70.427    35.752
164.688     70.395    34.315
167.084     70.373    32.915
169.514     70.361    31.510
171.980     70.355    30.066
174.481     70.347    28.563
177.019     70.330    27.032
179.594     70.303    25.523
182.206     70.269    24.075
184.856     70.236    22.707
187.545     70.211    21.393
190.273     70.195    20.088
193.041     70.184    18.771
195.849     70.177    17.440
198.697     70.174    16.079
201.587     70.171    14.664
204.520     70.164    13.188
207.494     70.147    11.675
210.512     70.117    10.166
213.574     70.074     8.709
216.681     70.022     7.330
219.833     69.963     6.032
223.030     69.906     4.842
226.274     69.860     3.746
229.565     69.828     2.698
232.905     69.814     1.697
236.292     69.824     0.698
239.729     69.855    -0.422
243.216     69.891    -1.736
246.754     69.915    -3.216
250.343     69.915    -4.790
253.984     69.888    -6.355
257.678     69.839    -7.802
261.426     69.788    -9.074
265.229     69.754   -10.237
269.087     69.741   -11.430
273.001     69.739   -12.720
276.972     69.731   -14.091
281.000     69.713   -15.466
285.088     69.692   -16.762
289.234     69.680   -18.005
293.441     69.685   -19.271
297.709     69.701   -20.663
302.040     69.705   -22.214
306.433     69.688   -23.791
310.890     69.657   -25.300
315.412     69.623   -26.726
320.000     69.602   -28.103
324.655     69.594   -29.567
329.377     69.586   -31.160
334.168     69.569   -32.831
339.028     69.540   -34.571
343.959     69.496   -36.348
348.962     69.435   -38.136
354.038     69.350   -39.905
359.188     69.241   -41.558
364.412     69.124   -43.029
369.713     69.018   -44.331
375.090     68.933   -45.567
380.546     68.866   -46.859
386.081     68.802   -48.203
391.697     68.733   -49.589
397.394     68.661   -51.029
403.175     68.584   -52.487
409.039     68.494   -53.997
414.989     68.381   -55.539
421.025     68.235   -56.919
427.149     68.078   -57.954
433.362     67.952   -58.650
439.665     67.886   -59.201
446.060     67.883   -59.894
452.548     67.908   -60.921
459.131     67.922   -62.238
465.809     67.920   -63.740
472.584     67.888   -65.356
479.458     67.814   -66.859
486.432     67.733   -68.110
493.507     67.665   -69.225
500.686     67.619   -70.247
507.968     67.615   -71.273
515.357     67.635   -72.595
522.853     67.641   -74.204
530.458     67.627   -75.896
538.174     67.600   -77.637
546.002     67.578   -79.244
553.943     67.623   -80.735
562.001     67.745   -82.682
570.175     67.860   -85.371
578.469     67.886   -88.633
586.883     67.778   -92.079
595.419     67.550   -95.070
604.080     67.256   -97.172
612.866     66.989   -98.386
621.780     66.853   -99.122
630.824     66.839  -100.055
640.000     66.872  -101.590
649.309     66.902  -103.678
658.753     66.890  -106.031
668.335     66.824  -108.380
678.056     66.746  -110.501
687.919     66.713  -112.398
697.925     66.747  -114.437
708.077     66.840  -117.150
718.376     66.886  -120.906
728.825     66.744  -124.952
739.426     66.514  -128.364
750.181     66.294  -131.525
761.093     66.043  -134.648
772.163     65.766  -137.555
783.394     65.455  -140.154
794.789     65.101  -142.105
806.349     64.766  -143.201
818.078     64.505  -143.744
829.977     64.352  -144.099
842.050     64.344  -144.909
854.298     64.411  -146.656
866.724     64.483  -149.078
879.330     64.559  -152.183
892.120     64.551  -156.039
905.097     64.371  -159.999
918.262     64.027  -163.401
931.618     63.582  -165.898
945.169     63.164  -167.610
958.917     62.880  -168.700
972.864     62.771  -169.694
987.015     62.762  -171.336
1001.37     62.754  -173.332
1015.94     62.694  -175.676
1030.71     62.526  -178.470
1045.71     62.296   178.887
1060.92     62.063   176.306
1076.35     61.793   173.636
1092.00     61.441   171.763
1107.89     61.099   171.354
1124.00     60.935   171.572
1140.35     60.904   171.557
1156.94     61.010   171.205
1173.77     61.187   169.270
1190.84     61.179   165.749
1208.16     60.980   162.593
1225.73     60.735   159.981
1243.56     60.438   158.027
1261.65     60.234   157.274
1280.00     60.204   156.477
1298.62     60.234   155.416
1317.51     60.391   154.123
1336.67     60.593   151.517
1356.11     60.673   148.485
1375.84     60.816   145.352
1395.85     60.925   141.916
1416.15     60.991   138.764
1436.75     61.069   135.403
1457.65     61.026   131.890
1478.85     60.871   128.558
1500.36     60.652   125.222
1522.19     60.377   122.347
1544.33     60.283   119.814
1566.79     60.345   116.894
1589.58     60.492   113.274
1612.70     60.633   108.559
1636.16     60.586   103.361
1659.95     60.372    97.848
1684.10     59.991    92.823
1708.60     59.564    88.632
1733.45     59.239    85.418
1758.66     59.020    82.450
1784.24     58.890    79.608
1810.19     58.879    76.711
1836.52     58.849    74.099
1863.24     58.928    71.087
1890.34     59.036    67.534
1917.83     59.273    62.343
1945.73     59.463    56.270
1974.03     59.549    48.739
2002.74     59.516    40.666
2031.87     59.247    32.210
2061.43     58.808    24.510
2091.41     58.293    17.949
2121.83     57.692    12.284
2152.69     57.313     8.720
2184.01     57.043     5.965
2215.77     56.981     1.586
2248.00     57.049    -3.378
2280.70     57.022   -11.446
2313.87     56.862   -20.865
2347.53     56.397   -28.759
2381.68     55.791   -34.962
2416.32     55.013   -39.132
2451.46     54.365   -41.949
2487.12     54.021   -44.493
2523.30     53.804   -49.301
2560.00     53.959   -56.709
2597.24     54.070   -64.681
2635.01     53.839   -74.110
2673.34     53.596   -84.789
2712.23     53.244   -93.564
2751.68     52.696  -101.381
2791.70     52.156  -107.768
2832.31     51.559  -111.415
2873.50     51.012  -114.714
2915.30     50.586  -118.488
2957.70     49.961  -123.221
3000.72     49.277  -125.961
3044.37     48.704  -128.185
3088.65     47.758  -128.147
3133.58     46.870  -124.112
3179.16     46.988  -121.609
3225.40     47.189  -124.464
3272.31     47.132  -131.522
3319.91     46.936  -141.130
3368.20     46.192  -154.782
3417.19     44.152  -172.483
3466.89     41.513   160.700
3517.32     39.031   120.700
3568.48     38.237    85.362
3620.39     36.388    85.643
3673.05     32.118   133.992
3726.47     36.180  -168.867
3780.67     40.160  -144.508
3835.67     41.526  -129.715
3891.46     41.530  -128.422
3948.06     40.981  -134.447
4005.49     40.170  -142.808
4063.75     40.199  -152.823
4122.86     40.986  -162.326
4182.82     41.992  -167.503
4243.66     43.209  -167.749
4305.39     44.170  -164.988
4368.01     44.909  -162.336
4431.55     45.777  -158.578
4496.01     46.609  -159.444
4561.40     47.738  -161.640
4627.75     48.986  -164.066
4695.06     50.273  -170.027
4763.35     51.392  -177.916
4832.64     52.156   171.954
4902.93     52.493   160.659
4974.24     52.374   150.453
5046.60     52.025   142.122
5120.00     51.453   134.622
5194.47     50.838   128.230
5270.03     50.323   121.527
5346.68     49.673   115.519
5424.45     49.044   109.935
5503.35     48.291   105.421
5583.40     47.365   102.427
5664.61     46.553    99.173
5747.01     45.790    96.417
5830.60     45.314    91.705
5915.41     45.019    86.140
6001.45     45.016    81.465
6088.74     45.222    75.910
6177.30     45.667    70.888
6267.15     46.058    66.615
6358.31     46.400    60.601
6450.80     46.563    54.911
6544.62     46.502    48.399
6639.82     46.357    43.569
6736.40     46.404    39.345
6834.38     46.293    35.329
6933.79     46.392    32.778
7034.64     46.673    30.553
7136.96     46.881    25.266
7240.77     46.816    20.132
7346.09     46.818    14.073
7452.94     46.426     8.785
7561.35     45.940     6.729
7671.33     45.912     5.703
7782.91     46.328     3.520
7896.12     47.177    -0.423
8010.97     48.343    -8.655
8127.49     49.397   -19.193
8245.71     50.298   -30.517
8365.65     51.036   -42.272
8487.33     51.473   -54.419
8610.78     51.651   -68.023
8736.03     51.577   -83.073
8863.09     51.070   -97.329
8992.01     50.286  -110.170
9122.80     49.533  -120.839
9255.50     48.748  -130.594
9390.12     47.985  -140.865
9526.70     47.029  -150.963
9665.27     45.824  -158.786
9805.86     44.345  -165.278
9948.49     42.351  -169.690
10093.2     40.487  -168.464
10240.0     39.200  -166.557
10388.9     38.508  -164.500
10540.1     38.741  -161.682
10693.4     39.420  -163.359
10848.9     40.000  -168.332
11006.7     40.287  -175.606
11166.8     40.374   175.101
11329.2     40.363   164.244
11494.0     40.238   151.742
11661.2     40.401   136.552
11830.8     40.559   114.146
12002.9     40.493    84.146
12177.5     40.133    45.532
12354.6     39.577    -1.757
12534.3     39.401   -50.127
12716.6     39.921   -98.628
12901.6     40.926  -145.873
13089.2     41.994   173.612
13279.6     42.665   138.869
13472.8     43.001   106.578
13668.8     42.966    74.120
13867.6     42.652    36.829
14069.3     42.370    -7.490
14273.9     42.301   -57.886
14481.5     42.465  -112.260
14692.2     42.859  -165.334
14905.9     43.136   148.858
15122.7     43.139   113.092
15342.7     42.802    87.140
15565.8     42.172    70.196
15792.2     41.563    57.621
16021.9     41.165    47.384
16255.0     41.134    37.628
16491.4     41.551    26.689
16731.3     41.997    13.922
16974.7     42.274    -0.737
17221.6     42.218   -14.985
17472.1     41.669   -27.486
17726.2     40.799   -37.655
17984.0     39.857   -43.325
18245.6     39.260   -50.237
18511.0     38.849   -59.180
18780.2     38.439   -71.460
19053.4     37.729   -87.106
19330.5     36.273   -97.808
19611.7     34.479  -100.752
19897.0     33.106   -97.016
20186.4     32.940   -88.526
20480.0     34.774   -81.431
20777.9     37.318   -83.436
21080.1     39.653   -97.895
21386.7     41.611  -124.631
21697.8     42.528  -162.565
22013.4     42.255   154.609
22333.6     41.081   116.111
22658.4     38.895    82.286
22988.0     36.518    52.644
23322.4     35.087    27.549
