Freq[Hz]     dBSPL  Phase[Deg]
Freq[Hz]     dBSPL  Phase[Deg]
5.00000    -17.821   -14.731
5.07273    -17.465   -14.818
5.14651    -17.077   -14.911
5.22137    -16.644   -15.014
5.29732    -16.191   -15.122
5.37437    -15.719   -15.235
5.45254    -15.246   -15.349
5.53185    -14.773   -15.464
5.61231    -14.300   -15.581
5.69394    -13.827   -15.699
5.77676    -13.355   -15.819
5.86079    -12.882   -15.940
5.94604    -12.409   -16.063
6.03252    -11.936   -16.187
6.12027    -11.464   -16.312
6.20929    -10.991   -16.440
6.29961    -10.518   -16.568
6.39124    -10.045   -16.699
6.48420     -9.572   -16.831
6.57851     -9.099   -16.964
6.67420     -8.626   -17.100
6.77128     -8.152   -17.237
6.86977     -7.679   -17.377
6.96969     -7.206   -17.518
7.07107     -6.732   -17.662
7.17392     -6.259   -17.807
7.27827     -5.785   -17.955
7.38413     -5.312   -18.106
7.49154     -4.838   -18.258
7.60050     -4.364   -18.413
7.71105     -3.890   -18.571
7.82321     -3.417   -18.731
7.93701     -2.943   -18.893
8.05245     -2.469   -19.058
8.16958     -1.995   -19.226
8.28841     -1.520   -19.397
8.40896     -1.046   -19.570
8.53128     -0.572   -19.746
8.65537     -0.098   -19.925
8.78126      0.376   -20.107
8.90899      0.850   -20.291
9.03857      1.325   -20.478
9.17004      1.799   -20.668
9.30342      2.273   -20.861
9.43874      2.748   -21.056
9.57603      3.222   -21.255
9.71532      3.697   -21.456
9.85663      4.171   -21.660
10.0000      4.646   -21.868
10.1455      5.121   -22.078
10.2930      5.595   -22.291
10.4427      6.070   -22.507
10.5946      6.545   -22.727
10.7487      7.020   -22.950
10.9051      7.495   -23.176
11.0637      7.971   -23.405
11.2246      8.446   -23.638
11.3879      8.921   -23.875
11.5535      9.397   -24.115
11.7216      9.873   -24.359
11.8921     10.348   -24.607
12.0650     10.824   -24.859
12.2405     11.300   -25.114
12.4186     11.776   -25.374
12.5992     12.252   -25.638
12.7825     12.729   -25.906
12.9684     13.205   -26.178
13.1570     13.682   -26.454
13.3484     14.158   -26.735
13.5426     14.635   -27.020
13.7395     15.112   -27.309
13.9394     15.589   -27.603
14.1421     16.066   -27.901
14.3478     16.543   -28.204
14.5565     17.021   -28.512
14.7683     17.498   -28.825
14.9831     17.976   -29.142
15.2010     18.454   -29.464
15.4221     18.932   -29.792
15.6464     19.410   -30.125
15.8740     19.888   -30.463
16.1049     20.367   -30.806
16.3392     20.846   -31.156
16.5768     21.325   -31.510
16.8179     21.804   -31.871
17.0626     22.283   -32.237
17.3107     22.763   -32.610
17.5625     23.243   -32.988
17.8180     23.723   -33.373
18.0771     24.203   -33.764
18.3401     24.683   -34.161
18.6068     25.164   -34.565
18.8775     25.645   -34.976
19.1521     26.126   -35.393
19.4306     26.607   -35.818
19.7133     27.088   -36.269
20.0000     27.565   -36.773
20.2909     28.033   -37.341
20.5860     28.488   -37.938
20.8855     28.926   -38.399
21.1893     29.347   -38.645
21.4975     29.760   -38.762
21.8102     30.178   -38.829
22.1274     30.614   -38.923
22.4492     31.080   -39.085
22.7758     31.579   -39.302
23.1071     32.103   -39.647
23.4432     32.641   -40.139
23.7841     33.178   -40.846
24.1301     33.701   -41.890
24.4811     34.205   -43.105
24.8372     34.692   -44.244
25.1984     35.166   -45.213
25.5649     35.636   -45.964
25.9368     36.109   -46.617
26.3141     36.588   -47.324
26.6968     37.071   -48.158
27.0851     37.556   -49.158
27.4791     38.039   -50.272
27.8788     38.519   -51.395
28.2843     38.995   -52.427
28.6957     39.469   -53.372
29.1131     39.947   -54.301
29.5365     40.428   -55.278
29.9661     40.914   -56.374
30.4020     41.398   -57.535
30.8442     41.875   -58.716
31.2929     42.344   -59.924
31.7480     42.803   -61.142
32.2098     43.258   -62.416
32.6783     43.715   -63.744
33.1536     44.178   -64.908
33.6359     44.651   -65.793
34.1251     45.135   -66.387
34.6215     45.633   -67.016
35.1250     46.145   -67.917
35.6359     46.666   -69.162
36.1543     47.192   -70.556
36.6802     47.722   -71.993
37.2137     48.249   -73.411
37.7550     48.771   -74.834
38.3041     49.286   -76.372
38.8613     49.797   -78.165
39.4265     50.303   -80.002
40.0000     50.807   -81.696
40.5818     51.312   -83.165
41.1721     51.821   -84.597
41.7710     52.335   -86.168
42.3785     52.850   -88.014
42.9949     53.364   -90.133
43.6203     53.870   -92.424
44.2548     54.364   -94.759
44.8985     54.842   -97.002
45.5515     55.306   -99.067
46.2141     55.762  -100.986
46.8863     56.217  -102.848
47.5683     56.677  -104.735
48.2602     57.143  -106.713
48.9621     57.615  -108.800
49.6743     58.093  -110.974
50.3968     58.572  -113.226
51.1299     59.051  -115.535
51.8736     59.526  -117.883
52.6281     59.995  -120.278
53.3936     60.457  -122.730
54.1702     60.912  -125.245
54.9581     61.363  -127.816
55.7575     61.808  -130.450
56.5685     62.247  -133.157
57.3914     62.679  -135.914
58.2261     63.103  -138.700
59.0730     63.518  -141.524
59.9323     63.924  -144.410
60.8040     64.318  -147.355
61.6884     64.703  -150.344
62.5857     65.078  -153.374
63.4960     65.445  -156.447
64.4196     65.798  -159.559
65.3566     66.136  -162.709
66.3073     66.461  -165.898
67.2717     66.772  -169.115
68.2502     67.074  -172.335
69.2429     67.371  -175.556
70.2501     67.663  -178.795
71.2719     67.942   177.923
72.3086     68.204   174.608
73.3603     68.446   171.300
74.4274     68.669   168.013
75.5099     68.876   164.756
76.6083     69.072   161.523
77.7226     69.256   158.298
78.8531     69.429   155.085
80.0000     69.588   151.889
81.1636     69.733   148.739
82.3442     69.868   145.663
83.5419     69.994   142.639
84.7570     70.111   139.647
85.9899     70.219   136.688
87.2406     70.316   133.762
88.5096     70.403   130.879
89.7970     70.480   128.055
91.1031     70.551   125.291
92.4282     70.618   122.576
93.7726     70.681   119.904
95.1366     70.737   117.273
96.5204     70.787   114.679
97.9243     70.831   112.126
99.3486     70.868   109.624
100.794     70.900   107.171
102.260     70.928   104.760
103.747     70.952   102.396
105.256     70.972   100.083
106.787     70.989    97.807
108.340     71.004    95.557
109.916     71.016    93.341
111.515     71.022    91.164
113.137     71.023    89.034
114.783     71.022    86.965
116.452     71.023    84.939
118.146     71.025    82.912
119.865     71.026    80.878
121.608     71.018    78.842
123.377     70.999    76.836
125.171     70.971    74.910
126.992     70.939    73.079
128.839     70.911    71.318
130.713     70.888    69.594
132.615     70.868    67.862
134.543     70.846    66.114
136.500     70.816    64.378
138.486     70.779    62.689
140.500     70.738    61.074
142.544     70.696    59.547
144.617     70.659    58.102
146.721     70.632    56.706
148.855     70.614    55.318
151.020     70.601    53.906
153.217     70.589    52.458
155.445     70.574    50.987
157.706     70.552    49.513
160.000     70.524    48.062
162.327     70.491    46.666
164.688     70.461    45.317
167.084     70.435    43.991
169.514     70.412    42.672
171.980     70.389    41.343
174.481     70.362    40.003
177.019     70.329    38.689
179.594     70.294    37.422
182.206     70.259    36.203
184.856     70.228    35.018
187.545     70.204    33.833
190.273     70.180    32.630
193.041     70.153    31.424
195.849     70.125    30.232
198.697     70.097    29.055
201.587     70.070    27.869
204.520     70.039    26.658
207.494     69.999    25.448
210.512     69.949    24.288
213.574     69.892    23.228
216.681     69.838    22.281
219.833     69.794    21.413
223.030     69.765    20.570
226.274     69.752    19.670
229.565     69.745    18.682
232.905     69.737    17.645
236.292     69.730    16.579
239.729     69.720    15.476
243.216     69.704    14.335
246.754     69.678    13.169
250.343     69.639    11.994
253.984     69.585    10.860
257.678     69.519     9.851
261.426     69.456     9.006
265.229     69.415     8.262
269.087     69.401     7.478
273.001     69.402     6.544
276.972     69.397     5.450
281.000     69.372     4.290
285.088     69.329     3.174
289.234     69.276     2.157
293.441     69.232     1.232
297.709     69.203     0.302
302.040     69.175    -0.699
306.433     69.141    -1.714
310.890     69.100    -2.710
315.412     69.054    -3.660
320.000     69.015    -4.544
324.655     68.988    -5.459
329.377     68.969    -6.467
334.168     68.949    -7.563
339.028     68.923    -8.773
343.959     68.879   -10.066
348.962     68.811   -11.339
354.038     68.726   -12.541
359.188     68.629   -13.659
364.412     68.525   -14.655
369.713     68.434   -15.574
375.090     68.351   -16.516
380.546     68.261   -17.454
386.081     68.173   -18.341
391.697     68.084   -19.222
397.394     67.990   -20.139
403.175     67.887   -21.079
409.039     67.762   -21.994
414.989     67.617   -22.760
421.025     67.469   -23.253
427.149     67.347   -23.498
433.362     67.272   -23.667
439.665     67.242   -23.998
446.060     67.227   -24.664
452.548     67.190   -25.583
459.131     67.116   -26.538
465.809     67.014   -27.445
472.584     66.882   -28.163
479.458     66.744   -28.520
486.432     66.637   -28.610
493.507     66.565   -28.568
500.686     66.545   -28.439
507.968     66.596   -28.492
515.357     66.674   -29.019
522.853     66.735   -29.955
530.458     66.775   -31.154
538.174     66.780   -32.517
546.002     66.773   -33.862
553.943     66.784   -35.336
562.001     66.769   -37.162
570.175     66.685   -39.200
578.469     66.509   -41.175
586.883     66.237   -42.670
595.419     65.928   -43.490
604.080     65.651   -43.683
612.866     65.462   -43.441
621.780     65.386   -43.405
630.824     65.353   -43.839
640.000     65.312   -44.451
649.309     65.265   -45.093
658.753     65.223   -45.584
668.335     65.199   -45.911
678.056     65.199   -46.302
687.919     65.215   -46.857
697.925     65.236   -47.647
708.077     65.259   -48.801
718.376     65.256   -50.498
728.825     65.158   -52.390
739.426     65.023   -53.882
750.181     64.906   -55.229
761.093     64.762   -56.699
772.163     64.542   -57.924
783.394     64.265   -58.386
794.789     64.029   -57.993
806.349     63.926   -57.154
818.078     63.962   -56.439
829.977     64.089   -56.148
842.050     64.255   -56.448
854.298     64.424   -57.224
866.724     64.598   -58.421
879.330     64.756   -60.250
892.120     64.833   -62.547
905.097     64.785   -65.037
918.262     64.598   -67.062
931.618     64.336   -68.100
945.169     64.095   -68.372
958.917     63.948   -67.851
972.864     64.000   -67.373
987.015     64.149   -68.062
1001.37     64.243   -69.381
1015.94     64.303   -71.171
1030.71     64.280   -73.305
1045.71     64.192   -75.068
1060.92     64.128   -76.508
1076.35     64.099   -78.026
1092.00     64.064   -80.193
1107.89     63.925   -83.158
1124.00     63.622   -86.453
1140.35     63.141   -89.775
1156.94     62.454   -92.005
1173.77     61.715   -92.101
1190.84     61.108   -90.707
1208.16     60.730   -88.634
1225.73     60.658   -86.881
1243.56     60.760   -86.927
1261.65     60.792   -89.027
1280.00     60.618   -92.497
1298.62     60.117   -95.821
1317.51     59.406   -96.868
1336.67     58.738   -95.870
1356.11     58.259   -93.963
1375.84     58.046   -91.572
1395.85     58.157   -90.633
1416.15     58.372   -92.120
1436.75     58.520   -95.904
1457.65     58.494  -101.542
1478.85     58.313  -107.728
1500.36     57.915  -114.250
1522.19     57.258  -120.385
1544.33     56.318  -124.372
1566.79     55.388  -126.005
1589.58     54.675  -126.366
1612.70     54.394  -126.055
1636.16     54.549  -127.843
1659.95     54.827  -133.389
1684.10     54.760  -141.548
1708.60     54.221  -149.064
1733.45     53.232  -154.768
1758.66     52.043  -156.977
1784.24     51.098  -155.470
1810.19     50.940  -154.394
1836.52     51.428  -158.658
1863.24     51.713  -166.824
1890.34     51.622  -176.134
1917.83     51.129   176.047
1945.73     50.306   171.090
1974.03     49.785   169.728
2002.74     49.787   170.936
2031.87     50.362   170.718
2061.43     51.332   166.277
2091.41     52.054   160.194
2121.83     52.548   154.999
2152.69     53.086   151.021
2184.01     53.682   148.386
2215.77     54.222   145.241
2248.00     54.513   143.012
2280.70     54.288   142.561
2313.87     53.871   143.516
2347.53     53.658   146.404
2381.68     53.658   150.890
2416.32     54.137   154.293
2451.46     54.930   156.903
2487.12     55.706   159.885
2523.30     56.592   163.281
2560.00     57.600   165.837
2597.24     58.781   166.981
2635.01     59.929   166.129
2673.34     60.907   163.969
2712.23     61.717   161.301
2751.68     62.275   158.573
2791.70     62.604   156.545
2832.31     62.690   154.901
2873.50     62.435   153.109
2915.30     61.901   152.854
2957.70     61.256   154.166
3000.72     60.721   156.291
3044.37     60.275   158.898
3088.65     59.893   162.221
3133.58     59.593   166.441
3179.16     59.514   170.575
3225.40     59.447   172.873
3272.31     59.302   174.412
3319.91     58.853   175.591
3368.20     58.336   178.776
3417.19     57.873  -177.270
3466.89     57.301  -172.472
3517.32     56.860  -166.695
3568.48     56.490  -161.604
3620.39     56.060  -157.003
3673.05     55.553  -152.109
3726.47     55.088  -147.123
3780.67     54.490  -142.058
3835.67     53.705  -136.101
3891.46     52.876  -128.928
3948.06     51.721  -121.866
4005.49     50.244  -110.133
4063.75     49.316   -91.351
4122.86     49.099   -67.567
4182.82     50.565   -42.210
4243.66     52.968   -24.509
4305.39     55.041   -16.310
4368.01     56.569   -16.606
4431.55     57.270   -21.292
4496.01     57.025   -25.933
4561.40     56.199   -26.445
4627.75     54.797   -19.487
4695.06     53.154    -4.163
4763.35     52.302    16.849
4832.64     53.005    36.515
4902.93     54.472    50.540
4974.24     55.979    58.549
5046.60     57.054    60.224
5120.00     57.301    59.422
5194.47     56.812    60.607
5270.03     55.884    65.645
5346.68     54.776    75.141
5424.45     54.039    87.506
5503.35     53.874    99.755
5583.40     53.867   110.673
5664.61     53.910   119.973
5747.01     53.635   129.781
5830.60     53.238   141.963
5915.41     53.031   157.022
6001.45     53.074   172.837
6088.74     53.344  -172.714
6177.30     53.763  -161.162
6267.15     53.722  -152.794
6358.31     53.350  -144.378
6450.80     52.557  -132.719
6544.62     51.903  -116.624
6639.82     51.779   -99.560
6736.40     52.061   -83.129
6834.38     52.515   -69.193
6933.79     52.609   -59.546
7034.64     51.816   -48.117
7136.96     50.263   -33.254
7240.77     48.295   -14.161
7346.09     46.609    13.356
7452.94     46.603    38.675
7561.35     47.605    58.832
7671.33     48.199    75.750
7782.91     48.656    91.874
7896.12     49.110   107.144
8010.97     48.941   121.462
8127.49     48.718   138.383
8245.71     48.841   154.120
8365.65     48.699   166.685
8487.33     48.610  -177.732
8610.78     48.686  -161.872
8736.03     48.585  -146.373
8863.09     48.242  -128.734
8992.01     47.605  -109.950
9122.80     46.640   -89.352
9255.50     45.559   -64.090
9390.12     45.211   -37.542
9526.70     45.909   -13.655
9665.27     46.446     6.680
9805.86     47.136    30.596
9948.49     47.975    53.862
10093.2     48.103    74.502
10240.0     47.856   100.892
10388.9     47.683   127.278
10540.1     47.434   148.847
10693.4     47.033   171.900
10848.9     46.851  -163.379
11006.7     47.222  -139.233
11166.8     47.437  -116.169
11329.2     47.849   -91.473
11494.0     48.305   -70.267
11661.2     48.305   -45.680
11830.8     48.628   -19.613
12002.9     48.673     2.102
12177.5     48.325    29.516
12354.6     48.404    55.897
12534.3     48.250    79.572
12716.6     48.140   105.468
12901.6     47.842   129.765
13089.2     47.205   157.650
13279.6     46.884  -171.298
13472.8     46.649  -140.747
13668.8     46.824  -108.107
13867.6     47.506   -78.218
14069.3     48.053   -51.176
14273.9     48.481   -25.783
14481.5     48.286    -0.271
14692.2     47.858    29.442
14905.9     47.652    60.672
15122.7     47.328    92.742
15342.7     47.328   125.698
15565.8     47.736   160.370
15792.2     48.327  -167.386
16021.9     48.803  -135.463
16255.0     49.598  -105.657
16491.4     50.110   -83.454
16731.3     50.200   -64.618
16974.7     50.192   -50.550
17221.6     49.479   -43.221
17472.1     48.526   -34.382
17726.2     48.001   -31.008
17984.0     47.398   -28.360
18245.6     47.605   -23.506
18511.0     48.259   -17.812
18780.2     48.885    -7.369
19053.4     49.306     7.376
19330.5     49.233    25.239
19611.7     48.828    43.754
19897.0     47.739    57.939
20186.4     46.140    63.723
20480.0     44.767    54.269
20777.9     43.753    37.899
21080.1     42.910    21.421
21386.7     42.544    13.280
21697.8     41.867    25.288
22013.4     41.367    57.301
22333.6     41.433   102.269
22658.4     42.511   151.232
22988.0     43.869  -164.322
23322.4     44.686  -123.575
