Freq[Hz]     dBSPL  Phase[Deg]
Freq[Hz]     dBSPL  Phase[Deg]
5.00000    -17.147   -12.157
5.07273    -16.792   -12.243
5.14651    -16.406   -12.336
5.22137    -15.976   -12.438
5.29732    -15.526   -12.545
5.37437    -15.057   -12.658
5.45254    -14.587   -12.771
5.53185    -14.118   -12.887
5.61231    -13.648   -13.004
5.69394    -13.178   -13.123
5.77676    -12.709   -13.244
5.86079    -12.239   -13.366
5.94604    -11.769   -13.491
6.03252    -11.299   -13.617
6.12027    -10.830   -13.745
6.20929    -10.360   -13.875
6.29961     -9.890   -14.007
6.39124     -9.420   -14.140
6.48420     -8.950   -14.276
6.57851     -8.480   -14.414
6.67420     -8.010   -14.553
6.77128     -7.540   -14.695
6.86977     -7.070   -14.839
6.96969     -6.600   -14.985
7.07107     -6.130   -15.133
7.17392     -5.660   -15.284
7.27827     -5.190   -15.436
7.38413     -4.720   -15.591
7.49154     -4.249   -15.748
7.60050     -3.779   -15.908
7.71105     -3.309   -16.070
7.82321     -2.838   -16.234
7.93701     -2.368   -16.401
8.05245     -1.898   -16.570
8.16958     -1.427   -16.741
8.28841     -0.956   -16.916
8.40896     -0.486   -17.092
8.53128     -0.015   -17.272
8.65537      0.456   -17.454
8.78126      0.926   -17.639
8.90899      1.397   -17.827
9.03857      1.868   -18.017
9.17004      2.339   -18.210
9.30342      2.810   -18.407
9.43874      3.281   -18.606
9.57603      3.752   -18.808
9.71532      4.223   -19.013
9.85663      4.695   -19.221
10.0000      5.166   -19.433
10.1455      5.637   -19.647
10.2930      6.109   -19.865
10.4427      6.580   -20.086
10.5946      7.052   -20.311
10.7487      7.524   -20.539
10.9051      7.995   -20.770
11.0637      8.467   -21.005
11.2246      8.939   -21.243
11.3879      9.411   -21.485
11.5535      9.883   -21.731
11.7216     10.356   -21.981
11.8921     10.828   -22.234
12.0650     11.300   -22.491
12.2405     11.773   -22.752
12.4186     12.246   -23.017
12.5992     12.718   -23.287
12.7825     13.191   -23.560
12.9684     13.664   -23.838
13.1570     14.137   -24.120
13.3484     14.611   -24.406
13.5426     15.084   -24.697
13.7395     15.557   -24.992
13.9394     16.031   -25.292
14.1421     16.505   -25.596
14.3478     16.979   -25.906
14.5565     17.453   -26.220
14.7683     17.927   -26.539
14.9831     18.401   -26.863
15.2010     18.876   -27.192
15.4221     19.351   -27.527
15.6464     19.825   -27.867
15.8740     20.300   -28.212
16.1049     20.776   -28.563
16.3392     21.251   -28.919
16.5768     21.727   -29.281
16.8179     22.202   -29.649
17.0626     22.678   -30.023
17.3107     23.155   -30.403
17.5625     23.631   -30.790
17.8180     24.108   -31.182
18.0771     24.584   -31.581
18.3401     25.061   -31.986
18.6068     25.539   -32.399
18.8775     26.016   -32.818
19.1521     26.494   -33.244
19.4306     26.972   -33.677
19.7133     27.448   -34.133
20.0000     27.919   -34.633
20.2909     28.377   -35.182
20.5860     28.820   -35.747
20.8855     29.250   -36.184
21.1893     29.674   -36.426
21.4975     30.100   -36.556
21.8102     30.540   -36.658
22.1274     30.998   -36.809
22.4492     31.475   -37.054
22.7758     31.968   -37.375
23.1071     32.472   -37.807
23.4432     32.983   -38.341
23.7841     33.494   -39.035
24.1301     33.999   -39.987
24.4811     34.497   -41.075
24.8372     34.985   -42.110
25.1984     35.465   -43.017
25.5649     35.941   -43.750
25.9368     36.415   -44.406
26.3141     36.891   -45.106
26.6968     37.368   -45.909
27.0851     37.848   -46.847
27.4791     38.328   -47.880
27.8788     38.808   -48.924
28.2843     39.287   -49.901
28.6957     39.767   -50.823
29.1131     40.246   -51.751
29.5365     40.725   -52.721
29.9661     41.204   -53.780
30.4020     41.683   -54.866
30.8442     42.159   -55.952
31.2929     42.632   -57.068
31.7480     43.100   -58.226
32.2098     43.564   -59.470
32.6783     44.027   -60.782
33.1536     44.494   -61.926
33.6359     44.969   -62.779
34.1251     45.457   -63.330
34.6215     45.960   -63.929
35.1250     46.475   -64.824
35.6359     46.998   -66.081
36.1543     47.525   -67.490
36.6802     48.049   -68.923
37.2137     48.570   -70.302
37.7550     49.086   -71.640
38.3041     49.598   -73.079
38.8613     50.108   -74.789
39.4265     50.618   -76.563
40.0000     51.127   -78.235
40.5818     51.638   -79.718
41.1721     52.149   -81.175
41.7710     52.659   -82.775
42.3785     53.165   -84.628
42.9949     53.664   -86.714
43.6203     54.154   -88.928
44.2548     54.633   -91.136
44.8985     55.105   -93.211
45.5515     55.572   -95.105
46.2141     56.038   -96.880
46.8863     56.506   -98.639
47.5683     56.977  -100.462
48.2602     57.453  -102.403
48.9621     57.932  -104.459
49.6743     58.412  -106.604
50.3968     58.892  -108.815
51.1299     59.370  -111.072
51.8736     59.844  -113.362
52.6281     60.313  -115.690
53.3936     60.777  -118.069
54.1702     61.235  -120.510
54.9581     61.687  -123.006
55.7575     62.134  -125.564
56.5685     62.575  -128.190
57.3914     63.010  -130.860
58.2261     63.438  -133.562
59.0730     63.858  -136.312
59.9323     64.268  -139.130
60.8040     64.666  -142.011
61.6884     65.053  -144.939
62.5857     65.432  -147.909
63.4960     65.800  -150.916
64.4196     66.156  -153.951
65.3566     66.498  -157.011
66.3073     66.827  -160.102
67.2717     67.146  -163.218
68.2502     67.458  -166.354
69.2429     67.764  -169.524
70.2501     68.060  -172.747
71.2719     68.338  -176.021
72.3086     68.593  -179.311
73.3603     68.827   177.438
74.4274     69.045   174.244
75.5099     69.251   171.107
76.6083     69.448   168.005
77.7226     69.636   164.909
78.8531     69.812   161.816
80.0000     69.976   158.730
81.1636     70.128   155.676
82.3442     70.268   152.673
83.5419     70.397   149.712
84.7570     70.513   146.793
85.9899     70.618   143.927
87.2406     70.712   141.125
88.5096     70.797   138.389
89.7970     70.877   135.720
91.1031     70.953   133.104
92.4282     71.026   130.524
93.7726     71.095   127.982
95.1366     71.159   125.479
96.5204     71.216   123.006
97.9243     71.266   120.567
99.3486     71.309   118.174
100.794     71.346   115.829
102.260     71.377   113.539
103.747     71.404   111.313
105.256     71.431   109.145
106.787     71.460   107.000
108.340     71.485   104.853
109.916     71.504   102.721
111.515     71.515   100.621
113.137     71.516    98.571
114.783     71.512    96.599
116.452     71.506    94.695
118.146     71.501    92.832
119.865     71.495    90.997
121.608     71.485    89.193
123.377     71.471    87.437
125.171     71.454    85.747
126.992     71.437    84.117
128.839     71.421    82.532
130.713     71.410    80.982
132.615     71.399    79.444
134.543     71.388    77.911
136.500     71.375    76.400
138.486     71.359    74.918
140.500     71.342    73.468
142.544     71.325    72.053
144.617     71.309    70.672
146.721     71.295    69.314
148.855     71.280    67.976
151.020     71.265    66.652
153.217     71.248    65.343
155.445     71.230    64.051
157.706     71.208    62.773
160.000     71.181    61.522
162.327     71.150    60.323
164.688     71.117    59.192
167.084     71.086    58.132
169.514     71.065    57.126
171.980     71.052    56.139
174.481     71.043    55.140
177.019     71.037    54.125
179.594     71.029    53.096
182.206     71.016    52.071
184.856     71.001    51.070
187.545     70.985    50.095
190.273     70.968    49.150
193.041     70.951    48.244
195.849     70.936    47.372
198.697     70.923    46.528
201.587     70.913    45.695
204.520     70.902    44.865
207.494     70.887    44.078
210.512     70.874    43.369
213.574     70.871    42.745
216.681     70.886    42.160
219.833     70.922    41.513
223.030     70.968    40.718
226.274     71.005    39.742
229.565     71.018    38.674
232.905     71.006    37.652
236.292     70.981    36.750
239.729     70.956    36.001
243.216     70.942    35.371
246.754     70.944    34.773
250.343     70.956    34.157
253.984     70.972    33.533
257.678     70.997    32.917
261.426     71.034    32.243
265.229     71.072    31.452
269.087     71.101    30.566
273.001     71.113    29.618
276.972     71.104    28.712
281.000     71.086    27.962
285.088     71.083    27.357
289.234     71.101    26.785
293.441     71.135    26.116
297.709     71.172    25.303
302.040     71.194    24.400
306.433     71.200    23.504
310.890     71.195    22.694
315.412     71.191    22.001
320.000     71.200    21.365
324.655     71.221    20.680
329.377     71.244    19.906
334.168     71.262    19.050
339.028     71.267    18.162
343.959     71.259    17.345
348.962     71.254    16.633
354.038     71.260    15.934
359.188     71.265    15.216
364.412     71.274    14.501
369.713     71.285    13.719
375.090     71.285    12.895
380.546     71.281    12.120
386.081     71.279    11.363
391.697     71.277    10.593
397.394     71.266     9.795
403.175     71.235     9.052
409.039     71.201     8.482
414.989     71.185     8.030
421.025     71.190     7.616
427.149     71.219     7.180
433.362     71.267     6.601
439.665     71.308     5.824
446.060     71.329     4.914
452.548     71.328     3.978
459.131     71.302     3.089
465.809     71.262     2.346
472.584     71.229     1.757
479.458     71.208     1.222
486.432     71.193     0.711
493.507     71.186     0.253
500.686     71.195    -0.159
507.968     71.221    -0.607
515.357     71.251    -1.106
522.853     71.288    -1.597
530.458     71.338    -2.116
538.174     71.398    -2.707
546.002     71.467    -3.429
553.943     71.535    -4.311
562.001     71.596    -5.301
570.175     71.646    -6.423
578.469     71.662    -7.625
586.883     71.653    -8.726
595.419     71.638    -9.700
604.080     71.611   -10.653
612.866     71.576   -11.546
621.780     71.548   -12.257
630.824     71.534   -12.840
640.000     71.544   -13.374
649.309     71.584   -13.955
658.753     71.628   -14.770
668.335     71.647   -15.800
678.056     71.635   -16.884
687.919     71.594   -17.806
697.925     71.568   -18.411
708.077     71.612   -19.025
718.376     71.673   -20.200
728.825     71.631   -21.560
739.426     71.562   -22.333
750.181     71.565   -22.864
761.093     71.607   -23.666
772.163     71.646   -24.670
783.394     71.673   -25.801
794.789     71.664   -27.065
806.349     71.618   -28.251
818.078     71.556   -29.299
829.977     71.487   -30.200
842.050     71.447   -30.869
854.298     71.457   -31.498
866.724     71.498   -32.255
879.330     71.557   -33.204
892.120     71.619   -34.474
905.097     71.641   -36.033
918.262     71.595   -37.608
931.618     71.506   -38.988
945.169     71.418   -40.078
958.917     71.355   -40.864
972.864     71.338   -41.648
987.015     71.341   -42.688
1001.37     71.336   -43.844
1015.94     71.314   -45.135
1030.71     71.264   -46.557
1045.71     71.199   -47.830
1060.92     71.146   -48.969
1076.35     71.092   -50.211
1092.00     70.993   -51.446
1107.89     70.870   -52.343
1124.00     70.783   -52.967
1140.35     70.743   -53.499
1156.94     70.768   -53.980
1173.77     70.852   -54.886
1190.84     70.894   -56.403
1208.16     70.866   -57.964
1225.73     70.806   -59.482
1243.56     70.713   -60.896
1261.65     70.621   -61.948
1280.00     70.569   -62.930
1298.62     70.527   -63.892
1317.51     70.516   -64.834
1336.67     70.516   -66.021
1356.11     70.486   -67.077
1375.84     70.479   -68.065
1395.85     70.487   -69.148
1416.15     70.489   -70.162
1436.75     70.515   -71.262
1457.65     70.542   -72.379
1478.85     70.594   -73.457
1500.36     70.684   -74.656
1522.19     70.816   -76.048
1544.33     71.004   -77.914
1566.79     71.178   -80.455
1589.58     71.298   -83.489
1612.70     71.350   -86.715
1636.16     71.320   -89.966
1659.95     71.253   -93.249
1684.10     71.143   -96.268
1708.60     71.007   -99.220
1733.45     70.854  -102.001
1758.66     70.674  -104.421
1784.24     70.490  -106.580
1810.19     70.334  -108.581
1836.52     70.220  -110.300
1863.24     70.165  -112.030
1890.34     70.153  -114.107
1917.83     70.188  -116.724
1945.73     70.222  -119.667
1974.03     70.191  -123.267
2002.74     70.061  -127.217
2031.87     69.812  -130.928
2061.43     69.482  -134.357
2091.41     69.151  -137.305
2121.83     68.847  -139.711
2152.69     68.605  -141.730
2184.01     68.444  -143.240
2215.77     68.327  -144.855
2248.00     68.218  -146.686
2280.70     68.140  -148.790
2313.87     68.132  -151.323
2347.53     68.128  -154.165
2381.68     68.105  -157.026
2416.32     68.119  -159.644
2451.46     68.107  -162.457
2487.12     68.075  -165.313
2523.30     68.067  -168.213
2560.00     68.063  -171.603
2597.24     68.011  -175.240
2635.01     67.909  -178.893
2673.34     67.761   177.257
2712.23     67.517   173.435
2751.68     67.241   170.203
2791.70     67.040   167.148
2832.31     66.860   164.172
2873.50     66.756   161.930
2915.30     66.776   159.419
2957.70     66.801   156.794
3000.72     66.836   154.371
3044.37     66.817   151.596
3088.65     66.685   149.232
3133.58     66.666   148.480
3179.16     66.960   145.830
3225.40     66.999   142.631
3272.31     67.023   140.494
3319.91     67.142   138.883
3368.20     67.359   137.154
3417.19     67.639   134.662
3466.89     67.901   131.194
3517.32     68.044   127.148
3568.48     68.066   123.118
3620.39     67.975   119.815
3673.05     67.880   117.547
3726.47     67.873   116.174
3780.67     67.973   114.689
3835.67     68.189   112.852
3891.46     68.447   110.340
3948.06     68.676   107.191
4005.49     68.873   103.837
4063.75     69.020   100.306
4122.86     69.126    96.470
4182.82     69.146    92.365
4243.66     69.043    88.232
4305.39     68.827    84.297
4368.01     68.524    81.068
4431.55     68.194    78.752
4496.01     67.887    77.010
4561.40     67.622    75.781
4627.75     67.398    74.962
4695.06     67.193    74.496
4763.35     67.020    74.444
4832.64     66.895    74.629
4902.93     66.813    74.958
4974.24     66.774    75.174
5046.60     66.752    75.478
5120.00     66.757    75.964
5194.47     66.820    76.567
5270.03     66.951    77.305
5346.68     67.157    77.935
5424.45     67.433    78.388
5503.35     67.779    78.666
5583.40     68.167    78.509
5664.61     68.587    77.901
5747.01     69.010    76.800
5830.60     69.411    75.362
5915.41     69.778    73.600
6001.45     70.100    71.526
6088.74     70.367    69.319
6177.30     70.579    67.107
6267.15     70.772    64.983
6358.31     70.977    62.932
6450.80     71.193    60.747
6544.62     71.399    58.326
6639.82     71.564    55.824
6736.40     71.711    53.350
6834.38     71.819    50.761
6933.79     71.875    48.418
7034.64     71.957    46.235
7136.96     72.005    43.722
7240.77     71.999    41.524
7346.09     72.023    39.352
7452.94     71.977    36.962
7561.35     71.895    35.253
7671.33     71.867    33.570
7782.91     71.788    31.790
7896.12     71.713    30.447
8010.97     71.675    28.841
8127.49     71.593    27.217
8245.71     71.524    25.761
8365.65     71.450    24.179
8487.33     71.341    22.790
8610.78     71.221    21.754
8736.03     71.121    21.166
8863.09     71.088    20.802
8992.01     71.076    20.375
9122.80     71.102    20.198
9255.50     71.231    19.744
9390.12     71.362    18.707
9526.70     71.470    17.500
9665.27     71.596    16.206
9805.86     71.721    14.552
9948.49     71.801    12.763
10093.2     71.890    10.908
10240.0     71.955     8.741
10388.9     71.997     6.279
10540.1     71.961     3.544
10693.4     71.835     0.839
10848.9     71.626    -1.594
11006.7     71.351    -3.695
11166.8     71.004    -5.223
11329.2     70.659    -6.121
11494.0     70.289    -6.466
11661.2     69.943    -6.075
11830.8     69.646    -4.905
12002.9     69.463    -3.301
12177.5     69.366    -1.367
12354.6     69.455     0.811
12534.3     69.697     2.176
12716.6     70.042     2.707
12901.6     70.377     1.800
13089.2     70.538     0.454
13279.6     70.660    -0.347
13472.8     70.826    -1.138
13668.8     70.984    -2.127
13867.6     71.191    -3.115
14069.3     71.389    -4.564
14273.9     71.586    -6.010
14481.5     71.771    -7.949
14692.2     71.909    -9.890
14905.9     72.004   -12.015
15122.7     72.049   -13.964
15342.7     72.083   -15.826
15565.8     72.125   -17.405
15792.2     72.170   -19.187
16021.9     72.250   -20.875
16255.0     72.295   -22.723
16491.4     72.330   -24.572
16731.3     72.353   -26.201
16974.7     72.348   -27.561
17221.6     72.390   -28.883
17472.1     72.420   -29.949
17726.2     72.450   -31.373
17984.0     72.464   -32.588
18245.6     72.405   -33.924
18511.0     72.355   -35.241
18780.2     72.287   -36.169
19053.4     72.215   -37.111
19330.5     72.209   -37.740
19611.7     72.209   -37.993
19897.0     72.310   -38.181
20186.4     72.555   -38.133
20480.0     72.906   -38.278
20777.9     73.352   -39.109
21080.1     73.861   -40.657
21386.7     74.356   -42.808
21697.8     74.761   -45.750
22013.4     75.118   -49.166
22333.6     75.429   -52.858
22658.4     75.636   -57.121
22988.0     75.677   -61.945
23322.4     75.390   -66.843
