Freq[Hz]     dBSPL  Phase[Deg]
5.00000     25.201  -112.894
5.07273     25.256  -113.882
5.14651     25.327  -115.165
5.22137     25.423  -116.890
5.29732     25.529  -118.795
5.37437     25.646  -120.905
5.45254     25.763  -123.014
5.53185     25.880  -125.123
5.61231     26.002  -127.204
5.69394     26.136  -129.218
5.77676     26.298  -131.071
5.86079     26.500  -132.697
5.94604     26.740  -134.096
6.03252     27.018  -135.270
6.12027     27.320  -136.285
6.20929     27.633  -137.236
6.29961     27.950  -138.160
6.39124     28.266  -139.083
6.48420     28.583  -140.007
6.57851     28.899  -140.931
6.67420     29.216  -141.855
6.77128     29.533  -142.780
6.86977     29.849  -143.705
6.96969     30.166  -144.630
7.07107     30.482  -145.555
7.17392     30.799  -146.480
7.27827     31.116  -147.405
7.38413     31.432  -148.331
7.49154     31.749  -149.257
7.60050     32.065  -150.183
7.71105     32.382  -151.110
7.82321     32.699  -152.037
7.93701     33.015  -152.964
8.05245     33.332  -153.891
8.16958     33.648  -154.818
8.28841     33.965  -155.746
8.40896     34.281  -156.666
8.53128     34.594  -157.567
8.65537     34.903  -158.421
8.78126     35.205  -159.209
8.90899     35.500  -159.927
9.03857     35.788  -160.577
9.17004     36.072  -161.177
9.30342     36.354  -161.756
9.43874     36.635  -162.326
9.57603     36.916  -162.896
9.71532     37.197  -163.466
9.85663     37.478  -164.036
10.0000     37.759  -164.607
10.1455     38.040  -165.178
10.2930     38.321  -165.749
10.4427     38.602  -166.321
10.5946     38.883  -166.893
10.7487     39.164  -167.465
10.9051     39.445  -168.037
11.0637     39.726  -168.610
11.2246     40.006  -169.182
11.3879     40.285  -169.751
11.5535     40.562  -170.313
11.7216     40.835  -170.864
11.8921     41.105  -171.405
12.0650     41.371  -171.935
12.2405     41.635  -172.458
12.4186     41.898  -172.979
12.5992     42.160  -173.498
12.7825     42.423  -174.018
12.9684     42.685  -174.539
13.1570     42.948  -175.059
13.3484     43.210  -175.580
13.5426     43.473  -176.102
13.7395     43.735  -176.624
13.9394     43.998  -177.146
14.1421     44.259  -177.670
14.3478     44.519  -178.196
14.5565     44.775  -178.726
14.7683     45.028  -179.260
14.9831     45.278  -179.798
15.2010     45.525   179.661
15.4221     45.771   179.117
15.6464     46.016   178.572
15.8740     46.261   178.026
16.1049     46.506   177.480
16.3392     46.751   176.934
16.5768     46.996   176.387
16.8179     47.241   175.839
17.0626     47.486   175.291
17.3107     47.730   174.741
17.5625     47.974   174.190
17.8180     48.218   173.637
18.0771     48.461   173.083
18.3401     48.704   172.527
18.6068     48.947   171.971
18.8775     49.190   171.414
19.1521     49.433   170.856
19.4306     49.676   170.298
19.7133     49.918   169.737
20.0000     50.161   169.174
20.2909     50.402   168.605
20.5860     50.641   168.029
20.8855     50.880   167.447
21.1893     51.117   166.857
21.4975     51.354   166.263
21.8102     51.590   165.668
22.1274     51.827   165.070
22.4492     52.063   164.472
22.7758     52.298   163.871
23.1071     52.533   163.265
23.4432     52.767   162.653
23.7841     53.000   162.034
24.1301     53.232   161.409
24.4811     53.463   160.779
24.8372     53.694   160.146
25.1984     53.924   159.512
25.5649     54.154   158.875
25.9368     54.384   158.233
26.3141     54.612   157.583
26.6968     54.839   156.927
27.0851     55.065   156.263
27.4791     55.290   155.593
27.8788     55.514   154.920
28.2843     55.738   154.243
28.6957     55.962   153.563
29.1131     56.185   152.876
29.5365     56.407   152.182
29.9661     56.628   151.481
30.4020     56.848   150.774
30.8442     57.068   150.063
31.2929     57.288   149.348
31.7480     57.506   148.626
32.2098     57.724   147.898
32.6783     57.941   147.162
33.1536     58.156   146.419
33.6359     58.371   145.669
34.1251     58.585   144.915
34.6215     58.799   144.155
35.1250     59.011   143.388
35.6359     59.222   142.615
36.1543     59.433   141.834
36.6802     59.642   141.047
37.2137     59.851   140.254
37.7550     60.058   139.454
38.3041     60.265   138.647
38.8613     60.470   137.832
39.4265     60.675   137.010
40.0000     60.878   136.181
40.5818     61.081   135.345
41.1721     61.282   134.502
41.7710     61.483   133.651
42.3785     61.682   132.794
42.9949     61.880   131.929
43.6203     62.076   131.057
44.2548     62.272   130.178
44.8985     62.466   129.291
45.5515     62.659   128.397
46.2141     62.851   127.494
46.8863     63.042   126.582
47.5683     63.232   125.661
48.2602     63.421   124.731
48.9621     63.609   123.791
49.6743     63.796   122.841
50.3968     63.982   121.882
51.1299     64.167   120.913
51.8736     64.350   119.934
52.6281     64.532   118.946
53.3936     64.713   117.949
54.1702     64.893   116.943
54.9581     65.071   115.928
55.7575     65.248   114.905
56.5685     65.423   113.875
57.3914     65.597   112.837
58.2261     65.769   111.792
59.0730     65.939   110.742
59.9323     66.108   109.686
60.8040     66.274   108.624
61.6884     66.439   107.557
62.5857     66.602   106.484
63.4960     66.763   105.404
64.4196     66.921   104.317
65.3566     67.077   103.222
66.3073     67.230   102.117
67.2717     67.381   101.001
68.2502     67.529    99.875
69.2429     67.675    98.738
70.2501     67.818    97.588
71.2719     67.960    96.428
72.3086     68.099    95.258
73.3603     68.236    94.077
74.4274     68.372    92.887
75.5099     68.506    91.691
76.6083     68.638    90.488
77.7226     68.769    89.280
78.8531     68.897    88.069
80.0000     69.023    86.855
81.1636     69.147    85.638
82.3442     69.268    84.417
83.5419     69.387    83.193
84.7570     69.502    81.964
85.9899     69.615    80.730
87.2406     69.724    79.492
88.5096     69.831    78.249
89.7970     69.935    77.000
91.1031     70.036    75.745
92.4282     70.135    74.482
93.7726     70.231    73.212
95.1366     70.326    71.936
96.5204     70.419    70.657
97.9243     70.510    69.379
99.3486     70.599    68.107
100.794     70.685    66.839
102.260     70.767    65.576
103.747     70.844    64.310
105.256     70.919    63.037
106.787     70.990    61.755
108.340     71.061    60.466
109.916     71.130    59.177
111.515     71.197    57.892
113.137     71.262    56.614
114.783     71.323    55.342
116.452     71.381    54.072
118.146     71.435    52.799
119.865     71.487    51.521
121.608     71.537    50.241
123.377     71.585    48.963
125.171     71.632    47.690
126.992     71.676    46.425
128.839     71.718    45.171
130.713     71.757    43.925
132.615     71.793    42.686
134.543     71.827    41.456
136.500     71.859    40.237
138.486     71.888    39.034
140.500     71.915    37.845
142.544     71.940    36.669
144.617     71.962    35.507
146.721     71.983    34.358
148.855     72.002    33.222
151.020     72.020    32.100
153.217     72.037    30.993
155.445     72.053    29.896
157.706     72.068    28.810
160.000     72.082    27.731
162.327     72.096    26.661
164.688     72.110    25.595
167.084     72.123    24.533
169.514     72.136    23.475
171.980     72.148    22.417
174.481     72.160    21.358
177.019     72.171    20.298
179.594     72.181    19.235
182.206     72.190    18.167
184.856     72.198    17.091
187.545     72.204    16.010
190.273     72.207    14.924
193.041     72.208    13.830
195.849     72.206    12.729
198.697     72.201    11.623
201.587     72.192    10.514
204.520     72.180     9.403
207.494     72.163     8.295
210.512     72.142     7.192
213.574     72.116     6.098
216.681     72.084     5.017
219.833     72.048     3.955
223.030     72.006     2.915
226.274     71.961     1.904
229.565     71.911     0.927
232.905     71.857    -0.013
236.292     71.801    -0.911
239.729     71.743    -1.766
243.216     71.684    -2.574
246.754     71.626    -3.335
250.343     71.568    -4.049
253.984     71.514    -4.717
257.678     71.463    -5.344
261.426     71.416    -5.935
265.229     71.374    -6.498
269.087     71.337    -7.040
273.001     71.306    -7.572
276.972     71.280    -8.103
281.000     71.260    -8.641
285.088     71.244    -9.195
289.234     71.233    -9.774
293.441     71.225   -10.382
297.709     71.218   -11.023
302.040     71.212   -11.701
306.433     71.206   -12.413
310.890     71.198   -13.156
315.412     71.187   -13.928
320.000     71.172   -14.722
324.655     71.153   -15.530
329.377     71.130   -16.345
334.168     71.102   -17.157
339.028     71.069   -17.959
343.959     71.034   -18.744
348.962     70.995   -19.505
354.038     70.954   -20.237
359.188     70.913   -20.937
364.412     70.873   -21.604
369.713     70.835   -22.240
375.090     70.800   -22.848
380.546     70.769   -23.433
386.081     70.744   -24.002
391.697     70.724   -24.562
397.394     70.709   -25.120
403.175     70.700   -25.684
409.039     70.695   -26.260
414.989     70.694   -26.853
421.025     70.694   -27.468
427.149     70.696   -28.107
433.362     70.699   -28.770
439.665     70.700   -29.454
446.060     70.700   -30.157
452.548     70.699   -30.874
459.131     70.695   -31.599
465.809     70.690   -32.329
472.584     70.684   -33.061
479.458     70.677   -33.794
486.432     70.672   -34.530
493.507     70.668   -35.274
500.686     70.666   -36.031
507.968     70.666   -36.811
515.357     70.668   -37.624
522.853     70.670   -38.474
530.458     70.670   -39.365
538.174     70.666   -40.294
546.002     70.656   -41.249
553.943     70.639   -42.216
562.001     70.615   -43.176
570.175     70.585   -44.109
578.469     70.552   -44.999
586.883     70.518   -45.837
595.419     70.489   -46.629
604.080     70.468   -47.388
612.866     70.456   -48.141
621.780     70.454   -48.919
630.824     70.460   -49.745
640.000     70.470   -50.631
649.309     70.478   -51.570
658.753     70.479   -52.532
668.335     70.472   -53.471
678.056     70.457   -54.340
687.919     70.441   -55.101
697.925     70.431   -55.747
708.077     70.437   -56.306
718.376     70.465   -56.842
728.825     70.519   -57.442
739.426     70.595   -58.199
750.181     70.683   -59.182
761.093     70.773   -60.426
772.163     70.851   -61.918
783.394     70.909   -63.601
794.789     70.942   -65.394
806.349     70.951   -67.207
818.078     70.944   -68.962
829.977     70.926   -70.609
842.050     70.906   -72.125
854.298     70.888   -73.510
866.724     70.877   -74.786
879.330     70.874   -75.992
892.120     70.880   -77.177
905.097     70.896   -78.407
918.262     70.923   -79.745
931.618     70.956   -81.246
945.169     70.990   -82.943
958.917     71.015   -84.819
972.864     71.021   -86.806
987.015     71.002   -88.801
1001.37     70.956   -90.687
1015.94     70.892   -92.376
1030.71     70.825   -93.856
1045.71     70.769   -95.177
1060.92     70.736   -96.446
1076.35     70.732   -97.788
1092.00     70.753   -99.295
1107.89     70.791  -101.021
1124.00     70.836  -102.966
1140.35     70.876  -105.073
1156.94     70.908  -107.291
1173.77     70.927  -109.572
1190.84     70.933  -111.859
1208.16     70.928  -114.136
1225.73     70.916  -116.394
1243.56     70.899  -118.587
1261.65     70.886  -120.700
1280.00     70.883  -122.743
1298.62     70.894  -124.738
1317.51     70.919  -126.764
1336.67     70.953  -128.909
1356.11     70.988  -131.226
1375.84     71.017  -133.755
1395.85     71.034  -136.480
1416.15     71.033  -139.342
1436.75     71.013  -142.240
1457.65     70.977  -145.064
1478.85     70.932  -147.738
1500.36     70.890  -150.237
1522.19     70.861  -152.622
1544.33     70.852  -155.003
1566.79     70.864  -157.508
1589.58     70.891  -160.227
1612.70     70.927  -163.186
1636.16     70.962  -166.395
1659.95     70.983  -169.794
1684.10     70.984  -173.267
1708.60     70.959  -176.731
1733.45     70.912   179.921
1758.66     70.854   176.785
1784.24     70.801   173.820
1810.19     70.762   170.935
1836.52     70.743   168.013
1863.24     70.735   164.859
1890.34     70.726   161.443
1917.83     70.712   157.794
1945.73     70.687   153.953
1974.03     70.657   150.090
2002.74     70.626   146.293
2031.87     70.593   142.553
2061.43     70.556   138.841
2091.41     70.497   135.113
2121.83     70.409   131.402
2152.69     70.289   127.756
2184.01     70.141   124.281
2215.77     69.983   121.096
2248.00     69.844   118.219
2280.70     69.748   115.580
2313.87     69.711   113.043
2347.53     69.732   110.416
2381.68     69.789   107.497
2416.32     69.855   104.156
2451.46     69.903   100.347
2487.12     69.910    96.111
2523.30     69.866    91.657
2560.00     69.774    87.297
2597.24     69.643    83.376
2635.01     69.495    80.222
2673.34     69.361    77.931
2712.23     69.268    76.327
2751.68     69.235    75.059
2791.70     69.272    73.567
2832.31     69.361    71.340
2873.50     69.472    68.158
2915.30     69.571    64.019
2957.70     69.624    59.220
3000.72     69.616    54.327
3044.37     69.552    49.884
3088.65     69.461    46.294
3133.58     69.395    43.620
3179.16     69.389    41.483
3225.40     69.446    39.254
3272.31     69.531    36.340
3319.91     69.581    32.512
3368.20     69.543    28.147
3417.19     69.412    24.090
3466.89     69.235    21.146
3517.32     69.089    19.651
3568.48     69.046    19.248
3620.39     69.129    18.930
3673.05     69.299    17.707
3726.47     69.494    15.069
3780.67     69.660    11.102
3835.67     69.773     6.519
3891.46     69.859     2.147
3948.06     69.960    -1.546
4005.49     70.094    -4.543
4063.75     70.263    -7.284
4122.86     70.427   -10.341
4182.82     70.534   -13.944
4243.66     70.556   -17.895
4305.39     70.496   -21.732
4368.01     70.402   -24.938
4431.55     70.336   -27.347
4496.01     70.339   -29.277
4561.40     70.414   -31.283
4627.75     70.539   -33.871
4695.06     70.683   -37.225
4763.35     70.824   -41.182
4832.64     70.960   -45.404
4902.93     71.096   -49.606
4974.24     71.229   -53.715
5046.60     71.337   -57.813
5120.00     71.396   -61.986
5194.47     71.404   -66.258
5270.03     71.379   -70.518
5346.68     71.357   -74.685
5424.45     71.369   -78.855
5503.35     71.422   -83.190
5583.40     71.500   -87.947
5664.61     71.541   -93.337
5747.01     71.447   -98.952
5830.60     71.202  -103.915
5915.41     70.887  -107.732
6001.45     70.570  -110.508
6088.74     70.273  -112.682
6177.30     69.998  -114.598
6267.15     69.761  -116.319
6358.31     69.582  -117.905
6450.80     69.467  -119.403
6544.62     69.421  -120.993
6639.82     69.432  -122.885
6736.40     69.478  -125.197
6834.38     69.531  -128.014
6933.79     69.579  -131.302
7034.64     69.621  -134.997
7136.96     69.655  -138.922
7240.77     69.684  -142.968
7346.09     69.697  -147.191
7452.94     69.692  -151.554
7561.35     69.667  -156.190
7671.33     69.602  -161.124
7782.91     69.494  -166.160
7896.12     69.350  -171.205
8010.97     69.177  -176.030
8127.49     68.988   179.490
8245.71     68.787   175.246
8365.65     68.570   171.235
8487.33     68.340   167.445
8610.78     68.098   163.909
8736.03     67.848   160.660
8863.09     67.583   157.628
8992.01     67.298   154.822
9122.80     67.005   152.213
9255.50     66.712   149.751
9390.12     66.429   147.539
9526.70     66.194   145.512
9665.27     66.016   143.401
9805.86     65.858   141.266
9948.49     65.705   139.277
10093.2     65.555   137.612
10240.0     65.438   136.696
10388.9     65.421   136.437
10540.1     65.547   136.257
10693.4     65.818   135.554
10848.9     66.184   133.516
11006.7     66.556   129.732
11166.8     66.865   124.302
11329.2     67.064   117.543
11494.0     67.152   110.135
11661.2     67.165   102.569
11830.8     67.134    95.150
12002.9     67.086    88.177
12177.5     67.029    81.656
12354.6     66.954    75.720
12534.3     66.863    70.496
12716.6     66.771    65.875
12901.6     66.704    61.773
13089.2     66.686    57.846
13279.6     66.714    53.681
13472.8     66.768    49.028
13668.8     66.812    43.730
13867.6     66.805    37.902
14069.3     66.710    31.897
14273.9     66.519    26.164
14481.5     66.259    21.030
14692.2     65.983    16.594
14905.9     65.763    12.606
15122.7     65.649     8.549
15342.7     65.643     3.949
15565.8     65.708    -1.512
15792.2     65.778    -7.823
16021.9     65.810   -14.776
16255.0     65.769   -22.107
16491.4     65.637   -29.485
16731.3     65.419   -36.664
16974.7     65.133   -43.469
17221.6     64.804   -49.781
17472.1     64.473   -55.598
17726.2     64.170   -61.080
17984.0     63.903   -66.415
18245.6     63.660   -71.674
18511.0     63.428   -76.861
18780.2     63.200   -81.799
19053.4     62.991   -86.295
19330.5     62.829   -90.290
19611.7     62.740   -94.038
19897.0     62.751   -97.807
20186.4     62.869  -102.315
20480.0     63.037  -107.787
20777.9     63.204  -114.148
21080.1     63.364  -121.577
21386.7     63.406  -129.543
21697.8     63.293  -137.591
22013.4     63.038  -145.843
22333.6     62.562  -154.491
22658.4     61.857  -164.059
22988.0     60.969  -175.150
23322.4     59.979   172.784
23661.6     59.020   160.361
