Freq[Hz]     dBSPL  Phase[Deg]
5.00000     21.799  -119.603
5.07273     21.855  -120.626
5.14651     21.928  -121.955
5.22137     22.026  -123.741
5.29732     22.134  -125.714
5.37437     22.254  -127.898
5.45254     22.374  -130.082
5.53185     22.493  -132.266
5.61231     22.618  -134.422
5.69394     22.756  -136.515
5.77676     22.922  -138.450
5.86079     23.128  -140.167
5.94604     23.374  -141.663
6.03252     23.657  -142.941
6.12027     23.967  -144.066
6.20929     24.286  -145.128
6.29961     24.609  -146.164
6.39124     24.933  -147.200
6.48420     25.256  -148.236
6.57851     25.580  -149.273
6.67420     25.903  -150.309
6.77128     26.227  -151.346
6.86977     26.550  -152.383
6.96969     26.874  -153.420
7.07107     27.197  -154.457
7.17392     27.521  -155.495
7.27827     27.844  -156.533
7.38413     28.167  -157.571
7.49154     28.491  -158.609
7.60050     28.814  -159.648
7.71105     29.138  -160.687
7.82321     29.461  -161.726
7.93701     29.785  -162.765
8.05245     30.108  -163.804
8.16958     30.432  -164.844
8.28841     30.755  -165.884
8.40896     31.078  -166.917
8.53128     31.398  -167.932
8.65537     31.715  -168.902
8.78126     32.025  -169.810
8.90899     32.330  -170.652
9.03857     32.628  -171.430
9.17004     32.923  -172.160
9.30342     33.216  -172.871
9.43874     33.508  -173.573
9.57603     33.801  -174.275
9.71532     34.093  -174.977
9.85663     34.385  -175.680
10.0000     34.677  -176.383
10.1455     34.969  -177.086
10.2930     35.262  -177.789
10.4427     35.554  -178.493
10.5946     35.846  -179.197
10.7487     36.138  -179.902
10.9051     36.430   179.394
11.0637     36.723   178.689
11.2246     37.014   177.984
11.3879     37.305   177.283
11.5535     37.594   176.588
11.7216     37.880   175.902
11.8921     38.163   175.226
12.0650     38.443   174.560
12.2405     38.721   173.899
12.4186     38.999   173.242
12.5992     39.276   172.585
12.7825     39.554   171.928
12.9684     39.831   171.270
13.1570     40.108   170.612
13.3484     40.386   169.953
13.5426     40.663   169.294
13.7395     40.940   168.635
13.9394     41.218   167.976
14.1421     41.495   167.316
14.3478     41.772   166.659
14.5565     42.049   166.003
14.7683     42.327   165.351
14.9831     42.604   164.702
15.2010     42.881   164.055
15.4221     43.158   163.410
15.6464     43.435   162.764
15.8740     43.712   162.118
16.1049     43.989   161.472
16.3392     44.266   160.825
16.5768     44.543   160.178
16.8179     44.820   159.530
17.0626     45.096   158.882
17.3107     45.368   158.233
17.5625     45.638   157.583
17.8180     45.903   156.932
18.0771     46.165   156.281
18.3401     46.425   155.628
18.6068     46.683   154.975
18.8775     46.942   154.322
19.1521     47.200   153.667
19.4306     47.458   153.013
19.7133     47.715   152.356
20.0000     47.973   151.697
20.2909     48.229   151.034
20.5860     48.483   150.365
20.8855     48.736   149.691
21.1893     48.988   149.012
21.4975     49.240   148.329
21.8102     49.490   147.644
22.1274     49.741   146.958
22.4492     49.992   146.271
22.7758     50.242   145.582
23.1071     50.491   144.889
23.4432     50.739   144.191
23.7841     50.985   143.488
24.1301     51.230   142.780
24.4811     51.474   142.068
24.8372     51.718   141.354
25.1984     51.962   140.638
25.5649     52.205   139.920
25.9368     52.447   139.198
26.3141     52.688   138.469
26.6968     52.927   137.734
27.0851     53.164   136.993
27.4791     53.401   136.247
27.8788     53.637   135.498
28.2843     53.872   134.745
28.6957     54.107   133.990
29.1131     54.341   133.228
29.5365     54.573   132.461
29.9661     54.804   131.687
30.4020     55.034   130.907
30.8442     55.264   130.124
31.2929     55.493   129.336
31.7480     55.721   128.544
32.2098     55.947   127.744
32.6783     56.172   126.937
33.1536     56.396   126.124
33.6359     56.618   125.304
34.1251     56.840   124.480
34.6215     57.061   123.650
35.1250     57.280   122.814
35.6359     57.498   121.970
36.1543     57.714   121.120
36.6802     57.929   120.264
37.2137     58.144   119.401
37.7550     58.357   118.532
38.3041     58.568   117.654
38.8613     58.778   116.769
39.4265     58.987   115.876
40.0000     59.194   114.976
40.5818     59.401   114.069
41.1721     59.605   113.154
41.7710     59.809   112.231
42.3785     60.011   111.300
42.9949     60.211   110.362
43.6203     60.410   109.415
44.2548     60.607   108.461
44.8985     60.803   107.498
45.5515     60.997   106.526
46.2141     61.190   105.544
46.8863     61.381   104.553
47.5683     61.571   103.552
48.2602     61.760   102.539
48.9621     61.948   101.515
49.6743     62.134   100.481
50.3968     62.319    99.435
51.1299     62.502    98.378
51.8736     62.685    97.308
52.6281     62.865    96.228
53.3936     63.044    95.137
54.1702     63.222    94.035
54.9581     63.398    92.922
55.7575     63.572    91.799
56.5685     63.745    90.665
57.3914     63.916    89.522
58.2261     64.085    88.370
59.0730     64.252    87.209
59.9323     64.417    86.039
60.8040     64.580    84.862
61.6884     64.741    83.675
62.5857     64.900    82.480
63.4960     65.056    81.275
64.4196     65.210    80.058
65.3566     65.361    78.830
66.3073     65.509    77.589
67.2717     65.655    76.333
68.2502     65.798    75.063
69.2429     65.939    73.778
70.2501     66.076    72.476
71.2719     66.212    71.159
72.3086     66.345    69.827
73.3603     66.476    68.480
74.4274     66.605    67.120
75.5099     66.732    65.748
76.6083     66.858    64.364
77.7226     66.982    62.971
78.8531     67.104    61.568
80.0000     67.223    60.157
81.1636     67.339    58.737
82.3442     67.453    57.308
83.5419     67.564    55.868
84.7570     67.672    54.418
85.9899     67.777    52.957
87.2406     67.879    51.485
88.5096     67.978    50.000
89.7970     68.074    48.504
91.1031     68.167    46.994
92.4282     68.257    45.469
93.7726     68.345    43.930
95.1366     68.432    42.376
96.5204     68.516    40.812
97.9243     68.599    39.241
99.3486     68.680    37.667
100.794     68.757    36.090
102.260     68.830    34.509
103.747     68.899    32.916
105.256     68.964    31.307
106.787     69.027    29.681
108.340     69.088    28.038
109.916     69.148    26.385
111.515     69.206    24.728
113.137     69.262    23.067
114.783     69.314    21.403
116.452     69.362    19.731
118.146     69.407    18.046
119.865     69.449    16.346
121.608     69.489    14.634
123.377     69.527    12.913
125.171     69.563    11.187
126.992     69.597     9.460
128.839     69.629     7.732
130.713     69.657     6.003
132.615     69.683     4.270
134.543     69.705     2.535
136.500     69.726     0.803
138.486     69.744    -0.925
140.500     69.759    -2.648
142.544     69.772    -4.366
144.617     69.782    -6.081
146.721     69.790    -7.792
148.855     69.797    -9.498
151.020     69.803   -11.198
153.217     69.808   -12.892
155.445     69.812   -14.581
157.706     69.815   -16.267
160.000     69.816   -17.951
162.327     69.817   -19.633
164.688     69.816   -21.315
167.084     69.816   -22.996
169.514     69.814   -24.678
171.980     69.812   -26.362
174.481     69.810   -28.049
177.019     69.807   -29.738
179.594     69.803   -31.431
182.206     69.798   -33.129
184.856     69.793   -34.834
187.545     69.787   -36.543
190.273     69.779   -38.257
193.041     69.771   -39.978
195.849     69.761   -41.704
198.697     69.750   -43.435
201.587     69.737   -45.170
204.520     69.723   -46.908
207.494     69.708   -48.648
210.512     69.692   -50.387
213.574     69.674   -52.127
216.681     69.655   -53.865
219.833     69.635   -55.600
223.030     69.615   -57.332
226.274     69.595   -59.060
229.565     69.577   -60.785
232.905     69.560   -62.509
236.292     69.545   -64.233
239.729     69.532   -65.961
243.216     69.523   -67.698
246.754     69.517   -69.448
250.343     69.515   -71.219
253.984     69.517   -73.018
257.678     69.524   -74.857
261.426     69.536   -76.747
265.229     69.553   -78.697
269.087     69.575   -80.720
273.001     69.600   -82.822
276.972     69.626   -85.012
281.000     69.653   -87.298
285.088     69.677   -89.684
289.234     69.697   -92.171
293.441     69.710   -94.758
297.709     69.713   -97.438
302.040     69.704  -100.202
306.433     69.679  -103.033
310.890     69.637  -105.914
315.412     69.576  -108.823
320.000     69.494  -111.736
324.655     69.392  -114.626
329.377     69.269  -117.467
334.168     69.126  -120.234
339.028     68.966  -122.904
343.959     68.791  -125.460
348.962     68.606  -127.885
354.038     68.414  -130.168
359.188     68.218  -132.300
364.412     68.020  -134.281
369.713     67.824  -136.118
375.090     67.634  -137.823
380.546     67.452  -139.416
386.081     67.282  -140.921
391.697     67.128  -142.361
397.394     66.990  -143.764
403.175     66.869  -145.154
409.039     66.765  -146.555
414.989     66.679  -147.990
421.025     66.609  -149.478
427.149     66.553  -151.032
433.362     66.510  -152.666
439.665     66.479  -154.384
446.060     66.458  -156.191
452.548     66.446  -158.090
459.131     66.443  -160.085
465.809     66.446  -162.181
472.584     66.457  -164.388
479.458     66.474  -166.715
486.432     66.497  -169.180
493.507     66.524  -171.802
500.686     66.556  -174.603
507.968     66.587  -177.607
515.357     66.613   179.169
522.853     66.628   175.725
530.458     66.623   172.083
538.174     66.593   168.297
546.002     66.531   164.448
553.943     66.434   160.641
562.001     66.304   156.981
570.175     66.145   153.557
578.469     65.968   150.424
586.883     65.785   147.595
595.419     65.608   145.035
604.080     65.450   142.675
612.866     65.320   140.422
621.780     65.223   138.172
630.824     65.159   135.834
640.000     65.123   133.335
649.309     65.108   130.635
658.753     65.105   127.724
668.335     65.109   124.626
678.056     65.115   121.381
687.919     65.124   118.031
697.925     65.138   114.610
708.077     65.163   111.126
718.376     65.205   107.558
728.825     65.264   103.859
739.426     65.342    99.967
750.181     65.431    95.822
761.093     65.523    91.371
772.163     65.607    86.594
783.394     65.676    81.494
794.789     65.724    76.093
806.349     65.749    70.423
818.078     65.750    64.521
829.977     65.727    58.414
842.050     65.678    52.136
854.298     65.597    45.734
866.724     65.479    39.277
879.330     65.318    32.855
892.120     65.112    26.578
905.097     64.867    20.548
918.262     64.592    14.843
931.618     64.296     9.494
945.169     63.991     4.481
958.917     63.683    -0.270
972.864     63.372    -4.862
987.015     63.059    -9.413
1001.37     62.740   -14.053
1015.94     62.418   -18.889
1030.71     62.097   -24.000
1045.71     61.777   -29.418
1060.92     61.461   -35.114
1076.35     61.147   -40.988
1092.00     60.831   -46.922
1107.89     60.514   -52.837
1124.00     60.199   -58.639
1140.35     59.897   -64.298
1156.94     59.615   -69.922
1173.77     59.351   -75.572
1190.84     59.117   -81.325
1208.16     58.910   -87.349
1225.73     58.712   -93.686
1243.56     58.531  -100.306
1261.65     58.365  -107.227
1280.00     58.203  -114.416
1298.62     58.053  -121.923
1317.51     57.911  -129.873
1336.67     57.763  -138.375
1356.11     57.589  -147.563
1375.84     57.371  -157.490
1395.85     57.084  -168.163
1416.15     56.701  -179.557
1436.75     56.197   168.352
1457.65     55.552   155.620
1478.85     54.746   142.237
1500.36     53.756   128.021
1522.19     52.516   112.742
1544.33     50.968    95.889
1566.79     49.002    75.995
1589.58     46.541    50.140
1612.70     44.237    13.862
1636.16     43.888   -30.078
1659.95     45.462   -65.457
1684.10     47.060   -88.461
1708.60     48.100  -103.882
1733.45     48.711  -114.496
1758.66     49.167  -121.797
1784.24     49.752  -127.583
1810.19     50.607  -134.031
1836.52     51.688  -142.666
1863.24     52.860  -153.839
1890.34     54.045  -166.758
1917.83     55.218   179.579
1945.73     56.309   165.926
1974.03     57.272   152.749
2002.74     58.082   139.830
2031.87     58.739   126.962
2061.43     59.277   113.999
2091.41     59.731   100.772
2121.83     60.129    87.299
2152.69     60.483    73.526
2184.01     60.806    59.313
2215.77     61.095    44.498
2248.00     61.327    28.950
2280.70     61.479    12.798
2313.87     61.525    -3.627
2347.53     61.447   -19.748
2381.68     61.249   -35.080
2416.32     60.958   -49.277
2451.46     60.633   -62.204
2487.12     60.345   -74.223
2523.30     60.138   -85.988
2560.00     60.021   -98.236
2597.24     59.968  -111.761
2635.01     59.906  -126.856
2673.34     59.771  -143.180
2712.23     59.526  -160.101
2751.68     59.181  -176.606
2791.70     58.780   168.115
2832.31     58.387   154.269
2873.50     58.046   141.272
2915.30     57.742   128.077
2957.70     57.455   113.842
3000.72     57.158    98.132
3044.37     56.844    81.243
3088.65     56.546    64.049
3133.58     56.282    47.090
3179.16     56.062    30.540
3225.40     55.888    13.971
3272.31     55.706    -3.682
3319.91     55.444   -23.372
3368.20     55.013   -46.103
3417.19     54.271   -73.615
3466.89     53.061  -108.544
3517.32     51.380  -155.204
3568.48     49.927   142.478
3620.39     50.177    71.195
3673.05     51.665     6.229
3726.47     52.930   -49.113
3780.67     53.664   -97.516
3835.67     54.025  -140.813
3891.46     54.146  -179.469
3948.06     54.124   145.871
4005.49     54.025   114.673
4063.75     53.868    86.857
4122.86     53.668    62.210
4182.82     53.455    39.477
4243.66     53.197    16.736
4305.39     52.854    -6.979
4368.01     52.434   -32.323
4431.55     51.956   -59.554
4496.01     51.445   -89.135
4561.40     50.963  -123.820
4627.75     50.620  -168.365
4695.06     50.697   134.568
4763.35     51.243    66.753
4832.64     51.713    -7.658
4902.93     51.639   -83.685
4974.24     51.130  -157.062
5046.60     50.504   134.856
5120.00     49.915    72.683
5194.47     49.415     9.005
5270.03     49.188   -63.734
5346.68     49.267  -145.451
5424.45     49.254   124.662
5503.35     48.792    30.440
5583.40     48.198   -64.119
5664.61     47.940  -157.082
5747.01     47.967   116.283
5830.60     48.049    36.248
5915.41     48.076   -39.002
6001.45     48.077  -107.874
6088.74     48.109  -171.542
6177.30     48.137   126.524
6267.15     48.147    59.312
6358.31     48.174   -19.871
6450.80     48.161  -112.838
6544.62     48.166   142.411
6639.82     48.152    31.861
6736.40     47.982   -72.601
6834.38     47.762  -170.391
6933.79     47.645   122.429
7034.64     47.557    80.356
7136.96     47.460    61.261
7240.77     47.361    77.291
7346.09     47.351    88.196
7452.94     47.492    79.197
7561.35     47.809    60.147
7671.33     48.154     6.178
7782.91     48.478   -71.381
7896.12     48.784  -162.320
8010.97     49.063    96.008
8127.49     49.296    -9.222
8245.71     49.412  -113.605
8365.65     49.438   156.549
8487.33     49.385    83.016
8610.78     49.290    37.868
8736.03     49.173    12.278
8863.09     48.996   -19.005
8992.01     48.789   -40.281
9122.80     48.597   -71.544
9255.50     48.377  -131.308
9390.12     48.230   169.969
9526.70     48.215   105.411
9665.27     48.354    34.042
9805.86     48.645   -29.354
9948.49     49.098   -89.402
10093.2     49.597  -145.479
10240.0     50.050   157.338
10388.9     50.362   103.085
10540.1     50.477    50.899
10693.4     50.429    20.984
10848.9     50.206     7.928
11006.7     49.790    13.708
11166.8     49.254    43.211
11329.2     48.647    69.304
11494.0     47.992    81.910
11661.2     47.307    78.864
11830.8     46.634    65.823
12002.9     45.989    51.986
12177.5     45.363    32.171
12354.6     44.781    23.024
12534.3     44.287    14.692
12716.6     43.866   -13.356
12901.6     43.510   -40.462
13089.2     43.228   -67.673
13279.6     43.046   -98.464
13472.8     42.938  -125.155
13668.8     42.956  -154.138
13867.6     43.119   172.000
14069.3     43.300   142.155
14273.9     43.451   115.362
14481.5     43.548    90.882
14692.2     43.504    61.575
14905.9     43.407    21.963
15122.7     43.328   -35.881
15342.7     43.273  -115.419
15565.8     43.286   151.869
15792.2     43.357    48.796
16021.9     43.453   -56.916
16255.0     43.555  -156.689
16491.4     43.606   114.386
16731.3     43.604    36.967
16974.7     43.484   -27.111
17221.6     43.210   -79.959
17472.1     42.819  -111.191
17726.2     42.339  -105.557
17984.0     41.851   -75.520
18245.6     41.421   -38.425
18511.0     41.027    -6.643
18780.2     40.672    -3.986
19053.4     40.324   -27.678
19330.5     39.900   -71.820
19611.7     39.513  -117.441
19897.0     39.191  -148.928
20186.4     39.078  -171.165
20480.0     39.061  -167.042
20777.9     38.974  -152.950
21080.1     38.656  -131.880
21386.7     38.237  -100.030
21697.8     37.519   -95.276
22013.4     36.566  -108.174
22333.6     35.619  -129.658
22658.4     34.633  -172.785
22988.0     33.260   149.118
23322.4     31.893   122.009
23661.6     30.423   105.424
