Freq[Hz]     dBSPL  Phase[Deg]
5.00000    -14.655   -14.910
5.07273    -14.313   -14.996
5.14651    -13.943   -15.088
5.22137    -13.534   -15.190
5.29732    -13.108   -15.296
5.37437    -12.664   -15.407
5.45254    -12.220   -15.519
5.53185    -11.777   -15.633
5.61231    -11.333   -15.749
5.69394    -10.889   -15.866
5.77676    -10.446   -15.984
5.86079    -10.002   -16.104
5.94604     -9.558   -16.225
6.03252     -9.114   -16.348
6.12027     -8.671   -16.472
6.20929     -8.227   -16.598
6.29961     -7.783   -16.726
6.39124     -7.339   -16.855
6.48420     -6.895   -16.986
6.57851     -6.452   -17.118
6.67420     -6.008   -17.253
6.77128     -5.563   -17.389
6.86977     -5.119   -17.527
6.96969     -4.675   -17.667
7.07107     -4.231   -17.809
7.17392     -3.787   -17.954
7.27827     -3.342   -18.100
7.38413     -2.898   -18.249
7.49154     -2.453   -18.400
7.60050     -2.009   -18.553
7.71105     -1.564   -18.709
7.82321     -1.120   -18.868
7.93701     -0.675   -19.028
8.05245     -0.230   -19.192
8.16958      0.215   -19.358
8.28841      0.660   -19.526
8.40896      1.104   -19.698
8.53128      1.549   -19.872
8.65537      1.994   -20.048
8.78126      2.439   -20.228
8.90899      2.884   -20.410
9.03857      3.329   -20.595
9.17004      3.774   -20.783
9.30342      4.220   -20.973
9.43874      4.665   -21.166
9.57603      5.110   -21.363
9.71532      5.555   -21.562
9.85663      6.001   -21.764
10.0000      6.446   -21.969
10.1455      6.891   -22.177
10.2930      7.337   -22.388
10.4427      7.782   -22.602
10.5946      8.228   -22.819
10.7487      8.674   -23.039
10.9051      9.120   -23.263
11.0637      9.566   -23.490
11.2246     10.012   -23.720
11.3879     10.458   -23.954
11.5535     10.904   -24.192
11.7216     11.350   -24.433
11.8921     11.797   -24.678
12.0650     12.243   -24.927
12.2405     12.690   -25.180
12.4186     13.136   -25.437
12.5992     13.583   -25.698
12.7825     14.030   -25.962
12.9684     14.477   -26.231
13.1570     14.924   -26.505
13.3484     15.371   -26.782
13.5426     15.819   -27.064
13.7395     16.266   -27.350
13.9394     16.714   -27.640
14.1421     17.161   -27.935
14.3478     17.609   -28.235
14.5565     18.057   -28.539
14.7683     18.505   -28.848
14.9831     18.953   -29.162
15.2010     19.401   -29.481
15.4221     19.850   -29.804
15.6464     20.299   -30.133
15.8740     20.748   -30.467
16.1049     21.197   -30.807
16.3392     21.646   -31.152
16.5768     22.095   -31.503
16.8179     22.545   -31.859
17.0626     22.994   -32.221
17.3107     23.444   -32.589
17.5625     23.894   -32.963
17.8180     24.344   -33.343
18.0771     24.795   -33.730
18.3401     25.246   -34.122
18.6068     25.696   -34.521
18.8775     26.148   -34.927
19.1521     26.599   -35.339
19.4306     27.050   -35.758
19.7133     27.510   -36.171
20.0000     27.986   -36.558
20.2909     28.498   -36.941
20.5860     29.050   -37.387
20.8855     29.616   -38.090
21.1893     30.167   -39.125
21.4975     30.669   -40.312
21.8102     31.090   -41.410
22.1274     31.449   -42.195
22.4492     31.800   -42.521
22.7758     32.183   -42.445
23.1071     32.620   -42.250
23.4432     33.118   -42.216
23.7841     33.645   -42.454
24.1301     34.162   -42.982
24.4811     34.658   -43.733
24.8372     35.131   -44.629
25.1984     35.592   -45.576
25.5649     36.056   -46.473
25.9368     36.534   -47.319
26.3141     37.030   -48.126
26.6968     37.535   -48.970
27.0851     38.037   -49.918
27.4791     38.528   -50.942
27.8788     38.998   -52.018
28.2843     39.453   -53.121
28.6957     39.903   -54.178
29.1131     40.356   -55.188
29.5365     40.825   -56.182
29.9661     41.311   -57.177
30.4020     41.807   -58.229
30.8442     42.305   -59.360
31.2929     42.789   -60.553
31.7480     43.264   -61.799
32.2098     43.734   -63.066
32.6783     44.201   -64.309
33.1536     44.683   -65.552
33.6359     45.186   -66.858
34.1251     45.702   -68.155
34.6215     46.210   -69.612
35.1250     46.691   -71.194
35.6359     47.146   -72.623
36.1543     47.584   -74.048
36.6802     48.026   -75.523
37.2137     48.490   -76.927
37.7550     48.979   -78.392
38.3041     49.482   -79.970
38.8613     49.978   -81.604
39.4265     50.461   -83.191
40.0000     50.935   -84.742
40.5818     51.410   -86.324
41.1721     51.889   -87.970
41.7710     52.372   -89.677
42.3785     52.855   -91.448
42.9949     53.339   -93.274
43.6203     53.826   -95.103
44.2548     54.312   -96.968
44.8985     54.799   -98.881
45.5515     55.289  -100.810
46.2141     55.775  -102.810
46.8863     56.257  -104.870
47.5683     56.728  -106.949
48.2602     57.195  -109.071
48.9621     57.663  -111.251
49.6743     58.130  -113.475
50.3968     58.600  -115.777
51.1299     59.073  -118.146
51.8736     59.541  -120.556
52.6281     60.002  -122.982
53.3936     60.457  -125.400
54.1702     60.908  -127.872
54.9581     61.355  -130.456
55.7575     61.795  -133.116
56.5685     62.229  -135.880
57.3914     62.651  -138.713
58.2261     63.064  -141.539
59.0730     63.468  -144.379
59.9323     63.867  -147.254
60.8040     64.262  -150.162
61.6884     64.651  -153.131
62.5857     65.031  -156.133
63.4960     65.400  -159.199
64.4196     65.753  -162.342
65.3566     66.090  -165.532
66.3073     66.411  -168.772
67.2717     66.719  -172.013
68.2502     67.016  -175.218
69.2429     67.306  -178.407
70.2501     67.589   178.422
71.2719     67.863   175.216
72.3086     68.122   171.954
73.3603     68.365   168.668
74.4274     68.593   165.381
75.5099     68.808   162.124
76.6083     69.011   158.905
77.7226     69.205   155.707
78.8531     69.388   152.520
80.0000     69.551   149.339
81.1636     69.696   146.173
82.3442     69.829   143.072
83.5419     69.953   140.053
84.7570     70.076   137.071
85.9899     70.196   134.124
87.2406     70.310   131.213
88.5096     70.414   128.297
89.7970     70.507   125.396
91.1031     70.589   122.549
92.4282     70.659   119.744
93.7726     70.725   116.980
95.1366     70.782   114.268
96.5204     70.830   111.600
97.9243     70.873   108.983
99.3486     70.908   106.416
100.794     70.936   103.892
102.260     70.960   101.430
103.747     70.978    99.009
105.256     70.991    96.639
106.787     71.002    94.331
108.340     71.010    92.066
109.916     71.015    89.853
111.515     71.019    87.683
113.137     71.018    85.570
114.783     71.011    83.497
116.452     71.004    81.481
118.146     70.998    79.525
119.865     70.992    77.613
121.608     70.990    75.712
123.377     70.988    73.853
125.171     70.981    72.007
126.992     70.976    70.201
128.839     70.971    68.435
130.713     70.970    66.709
132.615     70.977    64.972
134.543     70.982    63.229
136.500     70.986    61.451
138.486     70.983    59.645
140.500     70.966    57.856
142.544     70.943    56.114
144.617     70.914    54.439
146.721     70.885    52.857
148.855     70.866    51.328
151.020     70.853    49.821
153.217     70.846    48.286
155.445     70.839    46.734
157.706     70.831    45.153
160.000     70.816    43.557
162.327     70.793    42.018
164.688     70.770    40.519
167.084     70.747    39.041
169.514     70.724    37.578
171.980     70.701    36.117
174.481     70.672    34.669
177.019     70.637    33.270
179.594     70.600    32.001
182.206     70.577    30.818
184.856     70.573    29.659
187.545     70.586    28.448
190.273     70.606    27.117
193.041     70.624    25.684
195.849     70.628    24.205
198.697     70.623    22.737
201.587     70.619    21.303
204.520     70.615    19.819
207.494     70.603    18.292
210.512     70.580    16.756
213.574     70.540    15.242
216.681     70.490    13.806
219.833     70.432    12.433
223.030     70.371    11.210
226.274     70.326    10.101
229.565     70.298     9.007
232.905     70.281     7.944
236.292     70.288     6.877
239.729     70.310     5.649
243.216     70.328     4.265
246.754     70.331     2.749
250.343     70.313     1.183
253.984     70.272    -0.383
257.678     70.210    -1.831
261.426     70.142    -3.169
265.229     70.079    -4.342
269.087     70.039    -5.477
273.001     70.015    -6.681
276.972     69.989    -7.977
281.000     69.955    -9.306
285.088     69.912   -10.610
289.234     69.860   -11.869
293.441     69.812   -13.042
297.709     69.779   -14.178
302.040     69.752   -15.454
306.433     69.711   -16.749
310.890     69.658   -18.000
315.412     69.606   -19.208
320.000     69.559   -20.289
324.655     69.528   -21.388
329.377     69.517   -22.530
334.168     69.515   -23.789
339.028     69.512   -25.186
343.959     69.508   -26.734
348.962     69.482   -28.400
354.038     69.427   -30.126
359.188     69.346   -31.810
364.412     69.236   -33.370
369.713     69.129   -34.721
375.090     69.035   -35.986
380.546     68.939   -37.276
386.081     68.847   -38.470
391.697     68.754   -39.614
397.394     68.679   -40.786
403.175     68.619   -42.003
409.039     68.541   -43.396
414.989     68.449   -44.879
421.025     68.307   -46.188
427.149     68.153   -47.203
433.362     68.038   -47.912
439.665     67.972   -48.574
446.060     67.964   -49.496
452.548     67.959   -50.890
459.131     67.876   -52.460
465.809     67.771   -53.784
472.584     67.654   -55.151
479.458     67.473   -56.103
486.432     67.355   -56.533
493.507     67.304   -57.133
500.686     67.247   -57.752
507.968     67.277   -58.197
515.357     67.348   -59.288
522.853     67.389   -60.745
530.458     67.411   -62.133
538.174     67.414   -63.851
546.002     67.375   -65.462
553.943     67.396   -66.580
562.001     67.484   -68.437
570.175     67.530   -70.999
578.469     67.494   -74.001
586.883     67.288   -77.386
595.419     66.989   -79.902
604.080     66.644   -81.646
612.866     66.281   -82.275
621.780     66.153   -82.143
630.824     66.140   -82.702
640.000     66.094   -83.758
649.309     66.088   -85.135
658.753     66.010   -86.715
668.335     65.910   -88.010
678.056     65.826   -89.481
687.919     65.774   -90.814
697.925     65.734   -92.356
708.077     65.721   -94.227
718.376     65.715   -95.956
728.825     65.760   -98.296
739.426     65.696  -101.044
750.181     65.569  -103.261
761.093     65.493  -105.499
772.163     65.424  -108.243
783.394     65.185  -111.338
794.789     64.821  -113.548
806.349     64.490  -114.499
818.078     64.214  -115.201
829.977     63.976  -115.177
842.050     63.967  -115.028
854.298     64.032  -115.785
866.724     64.086  -116.738
879.330     64.309  -118.235
892.120     64.398  -121.076
905.097     64.392  -124.274
918.262     64.266  -127.908
931.618     63.824  -130.675
945.169     63.436  -132.345
958.917     63.025  -133.307
972.864     62.679  -132.935
987.015     62.699  -133.401
1001.37     62.628  -134.992
1015.94     62.581  -136.504
1030.71     62.494  -139.473
1045.71     62.088  -142.138
1060.92     61.667  -143.972
1076.35     61.155  -144.523
1092.00     60.722  -143.859
1107.89     60.587  -142.158
1124.00     60.743  -140.662
1140.35     61.031  -141.457
1156.94     61.233  -142.813
1173.77     61.395  -144.587
1190.84     61.413  -146.930
1208.16     61.490  -148.403
1225.73     61.631  -150.876
1243.56     61.564  -153.439
1261.65     61.586  -155.047
1280.00     61.636  -157.646
1298.62     61.539  -161.141
1317.51     61.328  -164.090
1336.67     61.062  -167.248
1356.11     60.564  -170.682
1375.84     59.970  -171.084
1395.85     59.429  -170.389
1416.15     58.989  -168.685
1436.75     58.952  -166.272
1457.65     59.061  -165.927
1478.85     59.077  -167.010
1500.36     59.089  -168.524
1522.19     58.827  -171.078
1544.33     58.493  -171.556
1566.79     58.202  -171.392
1589.58     57.902  -170.010
1612.70     58.030  -167.958
1636.16     58.180  -168.005
1659.95     58.489  -169.032
1684.10     58.753  -171.668
1708.60     58.657  -175.789
1733.45     58.378  -177.708
1758.66     57.957  -177.692
1784.24     57.650  -175.333
1810.19     57.791  -172.626
1836.52     58.151  -171.755
1863.24     58.580  -172.454
1890.34     58.891  -175.197
1917.83     59.058  -177.798
1945.73     58.988   179.307
1974.03     58.880   176.159
2002.74     58.779   174.163
2031.87     58.651   171.721
2061.43     58.494   167.911
2091.41     58.097   164.053
2121.83     57.567   160.461
2152.69     56.958   157.289
2184.01     56.523   154.751
2215.77     56.266   153.653
2248.00     55.921   151.621
2280.70     55.432   149.554
2313.87     54.630   148.710
2347.53     53.462   148.801
2381.68     52.566   152.269
2416.32     52.075   157.600
2451.46     51.874   161.848
2487.12     51.947   166.050
2523.30     52.139   170.980
2560.00     52.022   175.017
2597.24     51.664   179.336
2635.01     51.337  -175.442
2673.34     50.739  -170.267
2712.23     50.066  -164.665
2751.68     49.988  -158.353
2791.70     50.480  -154.237
2832.31     51.198  -152.060
2873.50     51.892  -151.360
2915.30     52.815  -150.815
2957.70     53.656  -151.572
3000.72     53.990  -152.981
3044.37     54.242  -153.078
3088.65     54.426  -154.431
3133.58     54.057  -154.728
3179.16     53.959  -152.488
3225.40     53.922  -152.206
3272.31     53.662  -149.868
3319.91     53.602  -147.200
3368.20     53.578  -145.142
3417.19     53.443  -142.015
3466.89     53.590  -137.967
3517.32     54.031  -134.983
3568.48     54.651  -133.616
3620.39     55.251  -133.006
3673.05     55.894  -134.887
3726.47     56.186  -139.246
3780.67     56.175  -143.721
3835.67     55.953  -148.872
3891.46     55.489  -154.466
3948.06     54.422  -160.907
4005.49     52.444  -166.668
4063.75     49.703  -165.911
4122.86     47.389  -160.342
4182.82     45.567  -150.905
4243.66     44.425  -138.124
4305.39     44.419  -121.263
4368.01     45.519  -104.536
4431.55     47.034   -90.720
4496.01     48.842   -79.426
4561.40     50.653   -71.373
4627.75     52.279   -69.086
4695.06     53.546   -70.874
4763.35     54.344   -76.398
4832.64     54.512   -82.670
4902.93     54.135   -88.714
4974.24     53.339   -93.122
5046.60     52.586   -94.708
5120.00     52.191   -94.775
5194.47     52.290   -95.510
5270.03     52.487   -97.264
5346.68     52.617   -98.861
5424.45     52.547  -100.112
5503.35     52.343  -100.013
5583.40     52.155   -99.888
5664.61     52.074  -100.354
5747.01     51.914  -102.009
5830.60     51.562  -104.534
5915.41     50.648  -104.463
6001.45     49.609   -99.814
6088.74     48.672   -92.554
6177.30     48.026   -83.432
6267.15     47.907   -74.582
6358.31     48.247   -68.285
6450.80     48.645   -65.563
6544.62     48.950   -65.920
6639.82     48.941   -69.445
6736.40     48.725   -78.306
6834.38     48.084   -96.018
6933.79     46.908  -128.256
7034.64     45.642  -173.153
7136.96     44.560   137.933
7240.77     43.872    90.786
7346.09     44.118    54.517
7452.94     44.426    32.078
7561.35     44.247    19.406
7671.33     43.502    14.290
7782.91     42.262    14.609
7896.12     40.630    21.828
8010.97     38.958    37.140
8127.49     38.183    56.219
8245.71     37.746    76.211
8365.65     37.837    97.744
8487.33     38.781   115.903
8610.78     40.683   129.881
8736.03     43.351   139.665
8863.09     45.489   140.338
8992.01     46.942   134.504
9122.80     47.816   126.370
9255.50     47.882   118.736
9390.12     47.295   115.342
9526.70     46.474   115.262
9665.27     45.564   118.237
9805.86     44.306   123.253
9948.49     43.019   129.884
10093.2     41.703   137.863
10240.0     40.193   143.597
10388.9     39.048   152.356
10540.1     38.200   162.334
10693.4     37.492   173.670
10848.9     37.440  -172.530
11006.7     37.167  -162.726
11166.8     36.690  -155.231
11329.2     36.404  -148.550
11494.0     35.590  -144.236
11661.2     33.997  -133.895
11830.8     32.494  -120.357
12002.9     30.739  -109.639
12177.5     30.243   -87.055
12354.6     30.927   -57.788
12534.3     33.264   -33.435
12716.6     35.522    -7.267
12901.6     36.604    14.257
13089.2     37.497    20.955
13279.6     37.672    21.176
13472.8     37.444    26.074
13668.8     37.738    38.051
13867.6     38.472    52.820
14069.3     39.724    70.404
14273.9     40.972    85.220
14481.5     41.873    94.576
14692.2     42.323   100.927
14905.9     42.128   106.258
15122.7     41.669   115.035
15342.7     41.298   125.690
15565.8     41.237   137.595
15792.2     41.499   149.654
16021.9     42.047   159.987
16255.0     42.635   166.991
16491.4     42.817   171.244
16731.3     42.531   173.991
16974.7     41.817   177.261
17221.6     40.813  -177.944
17472.1     39.418  -169.191
17726.2     37.795  -159.244
17984.0     36.040  -145.426
18245.6     34.055  -121.354
18511.0     32.430   -88.306
18780.2     31.362   -50.685
19053.4     30.868   -10.911
19330.5     32.121    28.083
19611.7     34.358    59.993
19897.0     36.480    81.287
20186.4     38.472    99.269
20480.0     40.196   114.792
20777.9     41.573   125.421
21080.1     42.641   134.088
21386.7     43.325   142.734
21697.8     43.576   150.391
22013.4     43.451   160.713
22333.6     43.051   173.983
22658.4     42.588  -170.945
22988.0     41.901  -154.040
23322.4     41.058  -137.965
23661.6     39.663  -120.567
