Freq[Hz]     dBSPL  Phase[Deg]
5.00000    -14.336   -17.321
5.07273    -13.992   -17.398
5.14651    -13.621   -17.479
5.22137    -13.210   -17.565
5.29732    -12.782   -17.654
5.37437    -12.335   -17.746
5.45254    -11.889   -17.840
5.53185    -11.443   -17.935
5.61231    -10.996   -18.031
5.69394    -10.550   -18.129
5.77676    -10.104   -18.228
5.86079     -9.657   -18.329
5.94604     -9.211   -18.431
6.03252     -8.764   -18.534
6.12027     -8.318   -18.639
6.20929     -7.871   -18.746
6.29961     -7.425   -18.854
6.39124     -6.978   -18.964
6.48420     -6.531   -19.076
6.57851     -6.085   -19.189
6.67420     -5.638   -19.304
6.77128     -5.191   -19.420
6.86977     -4.745   -19.539
6.96969     -4.298   -19.659
7.07107     -3.851   -19.780
7.17392     -3.404   -19.904
7.27827     -2.957   -20.029
7.38413     -2.510   -20.157
7.49154     -2.064   -20.286
7.60050     -1.617   -20.417
7.71105     -1.170   -20.550
7.82321     -0.723   -20.685
7.93701     -0.275   -20.822
8.05245      0.172   -20.961
8.16958      0.619   -21.103
8.28841      1.066   -21.246
8.40896      1.513   -21.391
8.53128      1.961   -21.539
8.65537      2.408   -21.689
8.78126      2.855   -21.841
8.90899      3.303   -21.995
9.03857      3.750   -22.152
9.17004      4.198   -22.311
9.30342      4.646   -22.473
9.43874      5.093   -22.637
9.57603      5.541   -22.803
9.71532      5.989   -22.972
9.85663      6.437   -23.144
10.0000      6.885   -23.318
10.1455      7.333   -23.494
10.2930      7.781   -23.674
10.4427      8.229   -23.856
10.5946      8.677   -24.041
10.7487      9.125   -24.229
10.9051      9.574   -24.419
11.0637     10.022   -24.613
11.2246     10.471   -24.809
11.3879     10.919   -25.009
11.5535     11.368   -25.211
11.7216     11.817   -25.417
11.8921     12.266   -25.626
12.0650     12.715   -25.838
12.2405     13.164   -26.053
12.4186     13.613   -26.272
12.5992     14.062   -26.494
12.7825     14.511   -26.720
12.9684     14.961   -26.949
13.1570     15.410   -27.182
13.3484     15.860   -27.418
13.5426     16.310   -27.658
13.7395     16.760   -27.902
13.9394     17.210   -28.150
14.1421     17.660   -28.402
14.3478     18.110   -28.657
14.5565     18.561   -28.917
14.7683     19.011   -29.181
14.9831     19.462   -29.449
15.2010     19.913   -29.721
15.4221     20.364   -29.998
15.6464     20.815   -30.279
15.8740     21.266   -30.565
16.1049     21.718   -30.855
16.3392     22.170   -31.150
16.5768     22.621   -31.450
16.8179     23.073   -31.755
17.0626     23.526   -32.065
17.3107     23.978   -32.380
17.5625     24.430   -32.700
17.8180     24.883   -33.025
18.0771     25.336   -33.356
18.3401     25.789   -33.693
18.6068     26.243   -34.035
18.8775     26.696   -34.383
19.1521     27.150   -34.736
19.4306     27.604   -35.096
19.7133     28.065   -35.450
20.0000     28.541   -35.783
20.2909     29.047   -36.117
20.5860     29.587   -36.518
20.8855     30.133   -37.162
21.1893     30.661   -38.110
21.4975     31.144   -39.173
21.8102     31.560   -40.114
22.1274     31.927   -40.737
22.4492     32.296   -40.945
22.7758     32.699   -40.822
23.1071     33.151   -40.635
23.4432     33.653   -40.642
23.7841     34.177   -40.913
24.1301     34.692   -41.419
24.4811     35.186   -42.101
24.8372     35.660   -42.901
25.1984     36.123   -43.754
25.5649     36.590   -44.587
25.9368     37.068   -45.401
26.3141     37.563   -46.201
26.6968     38.064   -47.040
27.0851     38.561   -47.966
27.4791     39.048   -48.945
27.8788     39.517   -49.951
28.2843     39.973   -50.967
28.6957     40.427   -51.938
29.1131     40.885   -52.868
29.5365     41.356   -53.796
29.9661     41.843   -54.739
30.4020     42.340   -55.745
30.8442     42.839   -56.830
31.2929     43.327   -57.972
31.7480     43.806   -59.162
32.2098     44.279   -60.372
32.6783     44.750   -61.553
33.1536     45.235   -62.763
33.6359     45.733   -64.066
34.1251     46.243   -65.391
34.6215     46.735   -66.847
35.1250     47.198   -68.348
35.6359     47.642   -69.632
36.1543     48.080   -70.823
36.6802     48.531   -72.030
37.2137     49.014   -73.239
37.7550     49.524   -74.597
38.3041     50.043   -76.142
38.8613     50.548   -77.786
39.4265     51.037   -79.394
40.0000     51.515   -80.943
40.5818     51.991   -82.492
41.1721     52.470   -84.090
41.7710     52.953   -85.740
42.3785     53.436   -87.446
42.9949     53.920   -89.202
43.6203     54.409   -90.968
44.2548     54.897   -92.769
44.8985     55.384   -94.617
45.5515     55.874   -96.490
46.2141     56.359   -98.427
46.8863     56.838  -100.415
47.5683     57.309  -102.413
48.2602     57.777  -104.450
48.9621     58.247  -106.543
49.6743     58.717  -108.687
50.3968     59.188  -110.915
51.1299     59.661  -113.213
51.8736     60.127  -115.550
52.6281     60.586  -117.898
53.3936     61.040  -120.234
54.1702     61.490  -122.616
54.9581     61.935  -125.092
55.7575     62.374  -127.642
56.5685     62.808  -130.289
57.3914     63.233  -132.999
58.2261     63.650  -135.714
59.0730     64.060  -138.450
59.9323     64.463  -141.227
60.8040     64.861  -144.045
61.6884     65.251  -146.927
62.5857     65.634  -149.848
63.4960     66.003  -152.827
64.4196     66.355  -155.866
65.3566     66.691  -158.929
66.3073     67.012  -162.023
67.2717     67.324  -165.115
68.2502     67.631  -168.181
69.2429     67.932  -171.260
70.2501     68.226  -174.373
71.2719     68.504  -177.541
72.3086     68.761   179.241
73.3603     68.999   176.019
74.4274     69.221   172.825
75.5099     69.431   169.681
76.6083     69.633   166.587
77.7226     69.827   163.517
78.8531     70.009   160.462
80.0000     70.175   157.428
81.1636     70.326   154.410
82.3442     70.467   151.432
83.5419     70.598   148.496
84.7570     70.720   145.579
85.9899     70.834   142.700
87.2406     70.938   139.878
88.5096     71.030   137.102
89.7970     71.113   134.380
91.1031     71.189   131.722
92.4282     71.259   129.116
93.7726     71.324   126.551
95.1366     71.384   124.027
96.5204     71.436   121.542
97.9243     71.482   119.099
99.3486     71.520   116.703
100.794     71.550   114.357
102.260     71.576   112.067
103.747     71.595   109.843
105.256     71.610   107.681
106.787     71.626   105.575
108.340     71.641   103.501
109.916     71.655   101.468
111.515     71.667    99.461
113.137     71.675    97.500
114.783     71.677    95.583
116.452     71.676    93.704
118.146     71.673    91.853
119.865     71.665    90.054
121.608     71.653    88.279
123.377     71.637    86.571
125.171     71.616    84.953
126.992     71.597    83.404
128.839     71.584    81.905
130.713     71.577    80.466
132.615     71.577    79.020
134.543     71.579    77.604
136.500     71.587    76.185
138.486     71.593    74.732
140.500     71.594    73.288
142.544     71.592    71.836
144.617     71.584    70.397
146.721     71.573    69.004
148.855     71.560    67.632
151.020     71.547    66.308
153.217     71.531    65.006
155.445     71.515    63.743
157.706     71.500    62.512
160.000     71.483    61.296
162.327     71.465    60.152
164.688     71.451    59.055
167.084     71.440    57.988
169.514     71.436    56.968
171.980     71.442    55.944
174.481     71.456    54.872
177.019     71.468    53.748
179.594     71.476    52.598
182.206     71.476    51.443
184.856     71.470    50.309
187.545     71.460    49.212
190.273     71.448    48.152
193.041     71.437    47.136
195.849     71.428    46.146
198.697     71.418    45.195
201.587     71.415    44.258
204.520     71.410    43.291
207.494     71.396    42.364
210.512     71.383    41.514
213.574     71.375    40.770
216.681     71.387    40.092
219.833     71.427    39.362
223.030     71.479    38.458
226.274     71.522    37.325
229.565     71.536    36.079
232.905     71.514    34.887
236.292     71.477    33.869
239.729     71.439    33.049
243.216     71.420    32.357
246.754     71.420    31.682
250.343     71.428    30.952
253.984     71.438    30.204
257.678     71.457    29.474
261.426     71.487    28.667
265.229     71.516    27.756
269.087     71.532    26.784
273.001     71.537    25.731
276.972     71.508    24.739
281.000     71.473    23.976
285.088     71.461    23.351
289.234     71.476    22.750
293.441     71.513    22.010
297.709     71.549    21.092
302.040     71.567    20.062
306.433     71.562    19.015
310.890     71.534    18.075
315.412     71.502    17.301
320.000     71.483    16.665
324.655     71.487    16.003
329.377     71.494    15.299
334.168     71.513    14.548
339.028     71.528    13.686
343.959     71.519    12.851
348.962     71.519    12.127
354.038     71.532    11.374
359.188     71.532    10.543
364.412     71.541     9.792
369.713     71.563     8.896
375.090     71.557     7.848
380.546     71.529     6.944
386.081     71.500     6.086
391.697     71.466     5.356
397.394     71.434     4.644
403.175     71.385     4.014
409.039     71.358     3.717
414.989     71.374     3.357
421.025     71.422     2.951
427.149     71.497     2.369
433.362     71.581     1.423
439.665     71.619     0.180
446.060     71.604    -1.170
452.548     71.545    -2.337
459.131     71.451    -3.264
465.809     71.355    -3.827
472.584     71.302    -4.031
479.458     71.286    -4.267
486.432     71.304    -4.523
493.507     71.337    -4.855
500.686     71.391    -5.281
507.968     71.460    -5.817
515.357     71.521    -6.553
522.853     71.569    -7.172
530.458     71.653    -7.911
538.174     71.721    -8.825
546.002     71.802    -9.844
553.943     71.864   -11.171
562.001     71.884   -12.563
570.175     71.897   -13.880
578.469     71.858   -15.274
586.883     71.791   -16.279
595.419     71.779   -16.988
604.080     71.766   -17.901
612.866     71.759   -19.021
621.780     71.744   -19.982
630.824     71.720   -20.994
640.000     71.691   -21.970
649.309     71.688   -22.680
658.753     71.721   -23.789
668.335     71.703   -25.206
678.056     71.668   -26.647
687.919     71.572   -28.127
697.925     71.414   -28.920
708.077     71.341   -29.026
718.376     71.410   -29.238
728.825     71.495   -30.542
739.426     71.433   -32.198
750.181     71.359   -32.967
761.093     71.329   -33.894
772.163     71.319   -34.725
783.394     71.337   -35.801
794.789     71.296   -37.258
806.349     71.218   -38.502
818.078     71.146   -39.757
829.977     71.015   -40.941
842.050     70.913   -41.679
854.298     70.858   -42.548
866.724     70.776   -43.420
879.330     70.700   -44.183
892.120     70.656   -45.093
905.097     70.564   -46.036
918.262     70.455   -46.772
931.618     70.357   -47.402
945.169     70.277   -47.866
958.917     70.217   -48.255
972.864     70.201   -48.760
987.015     70.183   -49.414
1001.37     70.167   -50.076
1015.94     70.164   -50.829
1030.71     70.178   -51.735
1045.71     70.208   -52.648
1060.92     70.254   -53.798
1076.35     70.246   -55.504
1092.00     70.121   -57.141
1107.89     69.935   -58.111
1124.00     69.840   -58.676
1140.35     69.801   -59.845
1156.94     69.677   -60.280
1173.77     69.739   -60.008
1190.84     69.896   -60.845
1208.16     69.977   -62.337
1225.73     70.009   -64.618
1243.56     69.891   -67.250
1261.65     69.680   -69.043
1280.00     69.507   -70.570
1298.62     69.373   -71.886
1317.51     69.232   -73.111
1336.67     69.063   -74.598
1356.11     68.815   -75.427
1375.84     68.612   -75.725
1395.85     68.435   -75.989
1416.15     68.307   -75.916
1436.75     68.304   -76.258
1457.65     68.249   -77.162
1478.85     68.176   -78.065
1500.36     68.079   -78.921
1522.19     67.977   -79.692
1544.33     67.979   -80.545
1566.79     67.910   -82.159
1589.58     67.838   -83.895
1612.70     67.727   -85.726
1636.16     67.480   -87.535
1659.95     67.243   -89.270
1684.10     66.880   -90.449
1708.60     66.436   -91.391
1733.45     66.028   -91.599
1758.66     65.561   -90.797
1784.24     65.179   -89.090
1810.19     64.972   -86.848
1836.52     64.929   -84.374
1863.24     65.021   -82.113
1890.34     65.207   -80.025
1917.83     65.429   -78.736
1945.73     65.710   -77.886
1974.03     65.930   -77.125
2002.74     66.152   -76.894
2031.87     66.317   -76.672
2061.43     66.537   -76.324
2091.41     66.801   -76.598
2121.83     67.047   -77.157
2152.69     67.402   -78.036
2184.01     67.752   -79.556
2215.77     68.041   -81.214
2248.00     68.313   -82.978
2280.70     68.513   -84.912
2313.87     68.749   -87.055
2347.53     68.960   -89.426
2381.68     69.146   -91.858
2416.32     69.338   -94.099
2451.46     69.475   -96.117
2487.12     69.622   -97.851
2523.30     69.838   -99.573
2560.00     70.059  -101.675
2597.24     70.278  -104.395
2635.01     70.454  -107.502
2673.34     70.535  -110.817
2712.23     70.548  -114.021
2751.68     70.519  -117.129
2791.70     70.442  -120.081
2832.31     70.383  -122.972
2873.50     70.312  -126.073
2915.30     70.197  -129.278
2957.70     70.040  -132.212
3000.72     69.844  -134.890
3044.37     69.608  -136.934
3088.65     69.396  -138.205
3133.58     69.267  -138.950
3179.16     69.245  -139.178
3225.40     69.366  -139.345
3272.31     69.606  -140.063
3319.91     69.886  -141.089
3368.20     70.244  -142.659
3417.19     70.648  -144.942
3466.89     71.057  -147.955
3517.32     71.459  -151.715
3568.48     71.788  -156.075
3620.39     72.026  -160.869
3673.05     72.179  -165.691
3726.47     72.256  -170.272
3780.67     72.333  -174.637
3835.67     72.437  -178.882
3891.46     72.557   176.663
3948.06     72.703   171.969
4005.49     72.848   166.948
4063.75     72.941   161.598
4122.86     72.983   156.114
4182.82     72.968   150.635
4243.66     72.896   145.223
4305.39     72.782   139.904
4368.01     72.657   134.886
4431.55     72.542   130.154
4496.01     72.472   125.485
4561.40     72.438   120.759
4627.75     72.452   115.813
4695.06     72.500   110.242
4763.35     72.512   103.953
4832.64     72.439    97.226
4902.93     72.236    90.335
4974.24     71.893    84.094
5046.60     71.533    79.082
5120.00     71.302    74.817
5194.47     71.226    70.264
5270.03     71.191    64.752
5346.68     71.099    58.616
5424.45     70.939    52.380
5503.35     70.745    46.164
5583.40     70.542    40.172
5664.61     70.362    34.195
5747.01     70.180    27.984
5830.60     69.972    21.560
5915.41     69.719    15.005
6001.45     69.427     8.491
6088.74     69.114     2.037
6177.30     68.753    -4.267
6267.15     68.361   -10.028
6358.31     67.963   -15.152
6450.80     67.599   -19.585
6544.62     67.343   -23.549
6639.82     67.217   -27.395
6736.40     67.275   -31.384
6834.38     67.449   -36.371
6933.79     67.588   -42.233
7034.64     67.732   -48.440
7136.96     67.827   -55.223
7240.77     67.863   -61.950
7346.09     67.946   -68.650
7452.94     68.042   -75.714
7561.35     68.132   -82.857
7671.33     68.247   -90.290
7782.91     68.347   -97.965
7896.12     68.446  -105.603
8010.97     68.581  -113.399
8127.49     68.757  -121.625
8245.71     68.910  -130.284
8365.65     69.059  -139.190
8487.33     69.198  -148.552
8610.78     69.292  -158.278
8736.03     69.335  -168.374
8863.09     69.301  -178.706
8992.01     69.206   171.067
9122.80     69.057   160.872
9255.50     68.828   151.080
9390.12     68.613   142.061
9526.70     68.428   133.416
9665.27     68.255   125.183
9805.86     68.166   117.350
9948.49     68.154   109.600
10093.2     68.279   101.927
10240.0     68.563    93.503
10388.9     68.872    84.123
10540.1     69.196    74.116
10693.4     69.498    63.375
10848.9     69.736    51.980
11006.7     69.925    40.391
11166.8     70.084    28.557
11329.2     70.227    16.629
11494.0     70.370     4.481
11661.2     70.511    -7.852
11830.8     70.643   -20.631
12002.9     70.753   -33.683
12177.5     70.839   -47.315
12354.6     70.834   -61.581
12534.3     70.689   -76.123
12716.6     70.397   -90.276
12901.6     70.073  -103.768
13089.2     69.756  -116.679
13279.6     69.496  -129.305
13472.8     69.275  -141.840
13668.8     69.119  -154.219
13867.6     69.032  -166.742
14069.3     69.020  -179.597
14273.9     69.047   167.073
14481.5     69.076   153.119
14692.2     69.054   138.731
14905.9     68.989   124.178
15122.7     68.870   109.534
15342.7     68.749    95.084
15565.8     68.638    80.632
15792.2     68.575    66.216
16021.9     68.537    51.655
16255.0     68.538    36.881
16491.4     68.555    22.029
16731.3     68.594     7.038
16974.7     68.694    -8.029
17221.6     68.838   -23.331
17472.1     69.022   -39.232
17726.2     69.220   -55.741
17984.0     69.377   -72.876
18245.6     69.481   -90.642
18511.0     69.537  -108.667
18780.2     69.548  -126.936
19053.4     69.550  -145.367
19330.5     69.541  -163.985
19611.7     69.551   177.263
19897.0     69.608   158.510
20186.4     69.736   139.541
20480.0     69.946   120.073
20777.9     70.199    99.988
21080.1     70.439    79.126
21386.7     70.627    57.664
21697.8     70.759    35.860
22013.4     70.866    13.818
22333.6     70.953    -8.548
22658.4     71.026   -31.646
22988.0     71.000   -55.716
23322.4     70.645   -80.495
23661.6     69.724  -103.091
