Freq[Hz]     dBSPL  Phase[Deg]
5.00000    -14.676   -16.656
5.07273    -14.332   -16.737
5.14651    -13.961   -16.823
5.22137    -13.550   -16.916
5.29732    -13.122   -17.012
5.37437    -12.676   -17.113
5.45254    -12.230   -17.215
5.53185    -11.784   -17.318
5.61231    -11.338   -17.423
5.69394    -10.892   -17.529
5.77676    -10.446   -17.637
5.86079    -10.000   -17.747
5.94604     -9.554   -17.858
6.03252     -9.107   -17.971
6.12027     -8.661   -18.086
6.20929     -8.215   -18.202
6.29961     -7.769   -18.320
6.39124     -7.322   -18.439
6.48420     -6.876   -18.561
6.57851     -6.430   -18.684
6.67420     -5.983   -18.809
6.77128     -5.537   -18.936
6.86977     -5.091   -19.065
6.96969     -4.644   -19.195
7.07107     -4.198   -19.328
7.17392     -3.751   -19.463
7.27827     -3.304   -19.599
7.38413     -2.858   -19.738
7.49154     -2.411   -19.878
7.60050     -1.965   -20.021
7.71105     -1.518   -20.166
7.82321     -1.071   -20.313
7.93701     -0.624   -20.462
8.05245     -0.177   -20.614
8.16958      0.269   -20.767
8.28841      0.716   -20.923
8.40896      1.163   -21.082
8.53128      1.610   -21.242
8.65537      2.057   -21.405
8.78126      2.504   -21.571
8.90899      2.952   -21.739
9.03857      3.399   -21.909
9.17004      3.846   -22.082
9.30342      4.293   -22.258
9.43874      4.741   -22.437
9.57603      5.188   -22.618
9.71532      5.636   -22.801
9.85663      6.083   -22.988
10.0000      6.531   -23.177
10.1455      6.979   -23.369
10.2930      7.426   -23.564
10.4427      7.874   -23.763
10.5946      8.322   -23.964
10.7487      8.770   -24.168
10.9051      9.218   -24.375
11.0637      9.666   -24.585
11.2246     10.115   -24.799
11.3879     10.563   -25.016
11.5535     11.011   -25.236
11.7216     11.460   -25.460
11.8921     11.908   -25.687
12.0650     12.357   -25.917
12.2405     12.806   -26.152
12.4186     13.255   -26.389
12.5992     13.703   -26.631
12.7825     14.153   -26.876
12.9684     14.602   -27.125
13.1570     15.051   -27.377
13.3484     15.500   -27.634
13.5426     15.950   -27.895
13.7395     16.399   -28.160
13.9394     16.849   -28.429
14.1421     17.299   -28.702
14.3478     17.749   -28.980
14.5565     18.199   -29.262
14.7683     18.649   -29.548
14.9831     19.100   -29.839
15.2010     19.550   -30.134
15.4221     20.001   -30.435
15.6464     20.452   -30.740
15.8740     20.903   -31.050
16.1049     21.354   -31.365
16.3392     21.806   -31.685
16.5768     22.257   -32.010
16.8179     22.709   -32.340
17.0626     23.161   -32.676
17.3107     23.613   -33.018
17.5625     24.065   -33.365
17.8180     24.517   -33.717
18.0771     24.970   -34.076
18.3401     25.423   -34.440
18.6068     25.876   -34.811
18.8775     26.329   -35.188
19.1521     26.783   -35.571
19.4306     27.237   -35.960
19.7133     27.697   -36.345
20.0000     28.173   -36.710
20.2909     28.680   -37.080
20.5860     29.221   -37.518
20.8855     29.769   -38.198
21.1893     30.299   -39.181
21.4975     30.784   -40.282
21.8102     31.201   -41.266
22.1274     31.569   -41.938
22.4492     31.937   -42.189
22.7758     32.339   -42.097
23.1071     32.790   -41.928
23.4432     33.290   -41.939
23.7841     33.813   -42.215
24.1301     34.326   -42.744
24.4811     34.820   -43.467
24.8372     35.294   -44.319
25.1984     35.757   -45.223
25.5649     36.223   -46.096
25.9368     36.700   -46.937
26.3141     37.196   -47.757
26.6968     37.699   -48.614
27.0851     38.198   -49.566
27.4791     38.687   -50.581
27.8788     39.156   -51.634
28.2843     39.611   -52.703
28.6957     40.062   -53.727
29.1131     40.518   -54.704
29.5365     40.988   -55.673
29.9661     41.474   -56.651
30.4020     41.971   -57.688
30.8442     42.470   -58.807
31.2929     42.957   -59.989
31.7480     43.436   -61.221
32.2098     43.908   -62.476
32.6783     44.378   -63.704
33.1536     44.862   -64.954
33.6359     45.363   -66.292
34.1251     45.876   -67.649
34.6215     46.372   -69.152
35.1250     46.836   -70.725
35.6359     47.278   -72.090
36.1543     47.710   -73.368
36.6802     48.154   -74.657
37.2137     48.631   -75.923
37.7550     49.138   -77.320
38.3041     49.655   -78.897
38.8613     50.159   -80.581
39.4265     50.646   -82.230
40.0000     51.121   -83.821
40.5818     51.593   -85.410
41.1721     52.069   -87.042
41.7710     52.551   -88.726
42.3785     53.034   -90.472
42.9949     53.518   -92.276
43.6203     54.006   -94.091
44.2548     54.493   -95.947
44.8985     54.980   -97.848
45.5515     55.468   -99.770
46.2141     55.953  -101.757
46.8863     56.432  -103.801
47.5683     56.903  -105.860
48.2602     57.369  -107.958
48.9621     57.837  -110.108
49.6743     58.304  -112.307
50.3968     58.773  -114.587
51.1299     59.245  -116.933
51.8736     59.711  -119.321
52.6281     60.171  -121.726
53.3936     60.624  -124.118
54.1702     61.074  -126.561
54.9581     61.519  -129.106
55.7575     61.958  -131.726
56.5685     62.391  -134.445
57.3914     62.815  -137.231
58.2261     63.229  -140.016
59.0730     63.636  -142.819
59.9323     64.038  -145.660
60.8040     64.436  -148.538
61.6884     64.828  -151.485
62.5857     65.212  -154.475
63.4960     65.582  -157.540
64.4196     65.933  -160.681
65.3566     66.266  -163.851
66.3073     66.583  -167.050
67.2717     66.889  -170.237
68.2502     67.189  -173.381
69.2429     67.484  -176.525
70.2501     67.773  -179.687
71.2719     68.049   177.099
72.3086     68.307   173.833
73.3603     68.546   170.555
74.4274     68.770   167.288
75.5099     68.983   164.060
76.6083     69.186   160.869
77.7226     69.379   157.696
78.8531     69.560   154.537
80.0000     69.722   151.398
81.1636     69.867   148.277
82.3442     70.002   145.214
83.5419     70.129   142.212
84.7570     70.250   139.230
85.9899     70.367   136.284
87.2406     70.475   133.380
88.5096     70.570   130.494
89.7970     70.656   127.646
91.1031     70.732   124.860
92.4282     70.800   122.121
93.7726     70.863   119.424
95.1366     70.919   116.774
96.5204     70.968   114.164
97.9243     71.011   111.598
99.3486     71.046   109.079
100.794     71.073   106.600
102.260     71.097   104.178
103.747     71.113   101.809
105.256     71.124    99.495
106.787     71.134    97.243
108.340     71.142    95.031
109.916     71.149    92.864
111.515     71.155    90.726
113.137     71.154    88.633
114.783     71.147    86.580
116.452     71.136    84.578
118.146     71.124    82.636
119.865     71.110    80.752
121.608     71.098    78.888
123.377     71.086    77.075
125.171     71.068    75.300
126.992     71.052    73.564
128.839     71.034    71.874
130.713     71.019    70.257
132.615     71.012    68.661
134.543     71.009    67.105
136.500     71.013    65.544
138.486     71.020    63.936
140.500     71.021    62.302
142.544     71.019    60.640
144.617     71.009    58.969
146.721     70.991    57.337
148.855     70.972    55.728
151.020     70.949    54.161
153.217     70.923    52.611
155.445     70.893    51.096
157.706     70.863    49.611
160.000     70.828    48.142
162.327     70.789    46.750
164.688     70.752    45.416
167.084     70.715    44.128
169.514     70.684    42.894
171.980     70.658    41.682
174.481     70.639    40.473
177.019     70.622    39.260
179.594     70.606    38.071
182.206     70.594    36.899
184.856     70.588    35.730
187.545     70.588    34.541
190.273     70.591    33.297
193.041     70.592    32.023
195.849     70.588    30.718
198.697     70.577    29.413
201.587     70.568    28.112
204.520     70.554    26.747
207.494     70.524    25.368
210.512     70.481    24.043
213.574     70.423    22.814
216.681     70.363    21.736
219.833     70.318    20.770
223.030     70.288    19.858
226.274     70.283    18.914
229.565     70.287    17.853
232.905     70.281    16.712
236.292     70.275    15.585
239.729     70.265    14.391
243.216     70.242    13.177
246.754     70.212    11.996
250.343     70.174    10.843
253.984     70.132     9.767
257.678     70.096     8.803
261.426     70.082     7.867
265.229     70.090     6.788
269.087     70.083     5.485
273.001     70.055     4.153
276.972     70.001     2.798
281.000     69.919     1.631
285.088     69.852     0.769
289.234     69.823    -0.047
293.441     69.822    -0.981
297.709     69.825    -2.097
302.040     69.810    -3.393
306.433     69.770    -4.698
310.890     69.710    -5.914
315.412     69.648    -7.084
320.000     69.589    -8.207
324.655     69.533    -9.371
329.377     69.462   -10.576
334.168     69.393   -11.696
339.028     69.317   -12.819
343.959     69.225   -13.975
348.962     69.126   -14.991
354.038     69.018   -15.955
359.188     68.898   -16.809
364.412     68.790   -17.424
369.713     68.715   -17.980
375.090     68.673   -18.628
380.546     68.633   -19.426
386.081     68.593   -20.404
391.697     68.523   -21.383
397.394     68.446   -22.445
403.175     68.336   -23.560
409.039     68.172   -24.361
414.989     68.017   -24.857
421.025     67.870   -24.940
427.149     67.776   -24.706
433.362     67.777   -24.473
439.665     67.830   -24.623
446.060     67.903   -25.245
452.548     67.945   -26.298
459.131     67.920   -27.454
465.809     67.871   -28.455
472.584     67.801   -29.263
479.458     67.759   -29.831
486.432     67.769   -30.470
493.507     67.765   -31.504
500.686     67.729   -32.619
507.968     67.654   -33.812
515.357     67.510   -34.774
522.853     67.338   -35.297
530.458     67.234   -35.209
538.174     67.193   -35.130
546.002     67.243   -35.001
553.943     67.386   -35.391
562.001     67.486   -36.589
570.175     67.505   -38.018
578.469     67.435   -39.538
586.883     67.257   -40.725
595.419     67.073   -41.104
604.080     66.953   -41.203
612.866     66.957   -41.038
621.780     67.011   -41.358
630.824     67.068   -42.104
640.000     67.101   -42.919
649.309     67.073   -43.716
658.753     67.093   -44.211
668.335     67.170   -44.803
678.056     67.274   -45.676
687.919     67.394   -47.059
697.925     67.420   -48.748
708.077     67.412   -50.300
718.376     67.416   -51.720
728.825     67.401   -53.967
739.426     67.172   -56.045
750.181     66.916   -56.505
761.093     66.821   -56.688
772.163     66.746   -56.941
783.394     66.738   -57.050
794.789     66.796   -57.679
806.349     66.834   -58.502
818.078     66.928   -59.302
829.977     67.026   -60.787
842.050     67.088   -62.391
854.298     67.157   -63.973
866.724     67.190   -66.117
879.330     67.171   -68.767
892.120     67.063   -71.093
905.097     66.853   -73.717
918.262     66.530   -75.501
931.618     66.220   -76.133
945.169     65.956   -76.637
958.917     65.765   -76.583
972.864     65.727   -76.813
987.015     65.657   -78.084
1001.37     65.523   -78.859
1015.94     65.382   -79.468
1030.71     65.254   -79.714
1045.71     65.135   -79.434
1060.92     65.126   -79.111
1076.35     65.317   -79.676
1092.00     65.459   -81.595
1107.89     65.529   -84.486
1124.00     65.585   -88.166
1140.35     65.280   -92.885
1156.94     64.541   -95.480
1173.77     63.822   -94.636
1190.84     63.350   -91.980
1208.16     63.231   -89.118
1225.73     63.410   -86.614
1243.56     63.767   -85.643
1261.65     64.070   -86.466
1280.00     64.273   -87.929
1298.62     64.318   -89.393
1317.51     64.324   -90.699
1336.67     64.384   -91.821
1356.11     64.406   -92.877
1375.84     64.504   -93.934
1395.85     64.651   -95.330
1416.15     64.721   -97.320
1436.75     64.750   -99.229
1457.65     64.756  -100.985
1478.85     64.764  -102.882
1500.36     64.727  -104.939
1522.19     64.621  -106.202
1544.33     64.566  -107.460
1566.79     64.546  -108.565
1589.58     64.504  -109.362
1612.70     64.511  -110.232
1636.16     64.612  -110.930
1659.95     64.755  -111.576
1684.10     64.977  -112.911
1708.60     65.292  -114.526
1733.45     65.609  -117.480
1758.66     65.791  -121.139
1784.24     65.855  -124.879
1810.19     65.853  -128.528
1836.52     65.752  -131.525
1863.24     65.769  -133.676
1890.34     65.941  -136.121
1917.83     66.102  -139.138
1945.73     66.273  -142.547
1974.03     66.390  -146.185
2002.74     66.318  -149.710
2031.87     66.297  -152.599
2061.43     66.351  -155.949
2091.41     66.349  -159.423
2121.83     66.455  -163.618
2152.69     66.540  -168.985
2184.01     66.463  -174.653
2215.77     66.329   179.431
2248.00     66.112   173.501
2280.70     65.808   167.702
2313.87     65.442   162.032
2347.53     65.074   157.210
2381.68     64.690   152.595
2416.32     64.322   149.074
2451.46     64.014   146.100
2487.12     63.693   142.546
2523.30     63.416   138.766
2560.00     63.060   134.572
2597.24     62.617   130.259
2635.01     62.210   126.775
2673.34     61.773   124.507
2712.23     61.579   122.496
2751.68     61.591   119.138
2791.70     61.693   113.594
2832.31     61.936   105.528
2873.50     62.023    95.224
2915.30     61.850    83.156
2957.70     61.569    70.480
3000.72     61.232    57.510
3044.37     60.900    43.676
3088.65     60.499    28.489
3133.58     59.915    11.304
3179.16     59.238    -6.250
3225.40     58.520   -23.821
3272.31     57.787   -40.093
3319.91     57.327   -54.507
3368.20     57.128   -68.346
3417.19     57.150   -81.486
3466.89     57.470   -93.900
3517.32     57.992  -106.861
3568.48     58.571  -120.581
3620.39     58.988  -134.483
3673.05     59.232  -147.454
3726.47     59.293  -159.366
3780.67     59.221  -169.744
3835.67     59.174  -178.698
3891.46     59.186   173.650
3948.06     59.437   166.115
4005.49     59.725   157.606
4063.75     59.971   150.654
4122.86     60.521   144.156
4182.82     61.187   135.879
4243.66     61.742   127.048
4305.39     62.143   117.312
4368.01     62.511   106.711
4431.55     62.761    94.506
4496.01     62.741    82.239
4561.40     62.737    70.243
4627.75     62.734    57.174
4695.06     62.479    43.738
4763.35     62.084    30.958
4832.64     61.604    18.332
4902.93     60.948     6.203
4974.24     60.143    -4.356
5046.60     59.542   -12.710
5120.00     59.310   -21.234
5194.47     59.318   -30.486
5270.03     59.488   -41.724
5346.68     59.556   -54.982
5424.45     59.422   -68.677
5503.35     59.198   -83.244
5583.40     58.732   -97.359
5664.61     58.285  -110.451
5747.01     57.840  -124.388
5830.60     57.309  -136.723
5915.41     56.964  -148.987
6001.45     56.553  -160.868
6088.74     56.422  -171.989
6177.30     56.445   174.744
6267.15     56.434   162.293
6358.31     56.668   147.789
6450.80     56.645   132.143
6544.62     56.587   117.960
6639.82     56.421   102.597
6736.40     56.150    88.725
6834.38     55.954    74.500
6933.79     55.758    59.680
7034.64     55.674    45.315
7136.96     55.771    30.011
7240.77     55.874    13.851
7346.09     55.888    -2.387
7452.94     55.845   -18.872
7561.35     55.889   -34.822
7671.33     55.651   -51.675
7782.91     55.598   -68.385
7896.12     55.543   -86.421
8010.97     55.447  -105.462
8127.49     55.263  -125.705
8245.71     54.988  -145.828
8365.65     54.715  -166.320
8487.33     54.446   173.568
8610.78     54.279   153.531
8736.03     54.181   132.964
8863.09     54.121   112.505
8992.01     54.093    92.829
9122.80     53.824    71.242
9255.50     53.311    51.942
9390.12     52.731    33.873
9526.70     52.029    13.973
9665.27     51.233    -2.679
9805.86     50.662   -20.457
9948.49     50.506   -39.501
10093.2     50.422   -57.448
10240.0     50.407   -78.881
10388.9     50.677   -99.472
10540.1     50.773  -120.443
10693.4     50.562  -144.327
10848.9     50.452  -166.114
11006.7     50.200   171.006
11166.8     49.717   147.182
11329.2     49.395   125.584
11494.0     49.364   104.240
11661.2     49.534    82.246
11830.8     49.921    60.262
12002.9     50.595    35.674
12177.5     51.048     7.884
12354.6     51.308   -21.294
12534.3     51.404   -52.329
12716.6     51.159   -83.267
12901.6     50.870  -112.926
13089.2     50.635  -141.813
13279.6     50.397  -170.462
13472.8     50.211   160.294
13668.8     50.021   130.770
13867.6     49.949    99.918
14069.3     49.819    67.205
14273.9     49.682    34.164
14481.5     49.472    -1.101
14692.2     48.868   -35.731
14905.9     48.113   -69.954
15122.7     47.047  -104.287
15342.7     45.778  -136.329
15565.8     44.717  -168.531
15792.2     43.682   160.988
16021.9     43.115   132.709
16255.0     42.921   102.888
16491.4     43.067    74.228
16731.3     43.624    42.621
16974.7     44.254     6.032
17221.6     44.984   -34.158
17472.1     45.095   -81.045
17726.2     44.682  -128.862
17984.0     43.852  -175.936
18245.6     42.280   144.368
18511.0     41.150   119.567
18780.2     40.650    96.015
19053.4     41.730    75.429
19330.5     43.829    52.569
19611.7     45.777    14.284
19897.0     47.672   -33.085
20186.4     49.013   -86.727
20480.0     49.732  -146.240
20777.9     50.029   153.940
21080.1     49.742    91.998
21386.7     49.047    31.101
21697.8     47.933   -29.746
22013.4     46.479   -90.174
22333.6     44.916  -151.309
22658.4     43.127   145.143
22988.0     41.426    77.026
23322.4     39.582     5.866
23661.6     37.612   -68.428
