Freq[Hz]     dBSPL  Phase[Deg]
5.00000    -14.651   -15.551
5.07273    -14.309   -15.635
5.14651    -13.940   -15.725
5.22137    -13.530   -15.824
5.29732    -13.104   -15.926
5.37437    -12.660   -16.034
5.45254    -12.216   -16.143
5.53185    -11.772   -16.254
5.61231    -11.329   -16.366
5.69394    -10.885   -16.479
5.77676    -10.441   -16.595
5.86079     -9.997   -16.711
5.94604     -9.553   -16.830
6.03252     -9.109   -16.950
6.12027     -8.665   -17.071
6.20929     -8.221   -17.195
6.29961     -7.777   -17.320
6.39124     -7.333   -17.446
6.48420     -6.889   -17.575
6.57851     -6.445   -17.705
6.67420     -6.000   -17.837
6.77128     -5.556   -17.971
6.86977     -5.112   -18.107
6.96969     -4.668   -18.245
7.07107     -4.223   -18.385
7.17392     -3.779   -18.527
7.27827     -3.335   -18.671
7.38413     -2.890   -18.817
7.49154     -2.446   -18.966
7.60050     -2.001   -19.117
7.71105     -1.556   -19.270
7.82321     -1.112   -19.425
7.93701     -0.667   -19.583
8.05245     -0.222   -19.743
8.16958      0.223   -19.905
8.28841      0.668   -20.071
8.40896      1.113   -20.238
8.53128      1.558   -20.409
8.65537      2.003   -20.582
8.78126      2.448   -20.757
8.90899      2.893   -20.936
9.03857      3.338   -21.117
9.17004      3.783   -21.300
9.30342      4.228   -21.487
9.43874      4.674   -21.676
9.57603      5.119   -21.868
9.71532      5.564   -22.063
9.85663      6.010   -22.261
10.0000      6.455   -22.462
10.1455      6.901   -22.666
10.2930      7.346   -22.872
10.4427      7.792   -23.082
10.5946      8.238   -23.295
10.7487      8.683   -23.511
10.9051      9.129   -23.730
11.0637      9.575   -23.953
11.2246     10.022   -24.179
11.3879     10.468   -24.408
11.5535     10.914   -24.641
11.7216     11.360   -24.878
11.8921     11.807   -25.118
12.0650     12.253   -25.362
12.2405     12.700   -25.610
12.4186     13.147   -25.862
12.5992     13.594   -26.117
12.7825     14.041   -26.377
12.9684     14.488   -26.641
13.1570     14.935   -26.908
13.3484     15.382   -27.180
13.5426     15.830   -27.456
13.7395     16.277   -27.737
13.9394     16.725   -28.022
14.1421     17.172   -28.311
14.3478     17.620   -28.604
14.5565     18.068   -28.903
14.7683     18.516   -29.206
14.9831     18.965   -29.513
15.2010     19.413   -29.826
15.4221     19.862   -30.143
15.6464     20.311   -30.466
15.8740     20.760   -30.794
16.1049     21.209   -31.127
16.3392     21.658   -31.465
16.5768     22.107   -31.809
16.8179     22.557   -32.158
17.0626     23.007   -32.513
17.3107     23.457   -32.874
17.5625     23.907   -33.241
17.8180     24.357   -33.614
18.0771     24.808   -33.993
18.3401     25.258   -34.378
18.6068     25.709   -34.769
18.8775     26.161   -35.167
19.1521     26.612   -35.571
19.4306     27.064   -35.983
19.7133     27.523   -36.390
20.0000     27.998   -36.778
20.2909     28.506   -37.173
20.5860     29.051   -37.643
20.8855     29.608   -38.366
21.1893     30.148   -39.409
21.4975     30.640   -40.584
21.8102     31.056   -41.647
22.1274     31.416   -42.387
22.4492     31.771   -42.677
22.7758     32.161   -42.583
23.1071     32.605   -42.383
23.4432     33.105   -42.354
23.7841     33.631   -42.603
24.1301     34.148   -43.141
24.4811     34.643   -43.900
24.8372     35.116   -44.802
25.1984     35.577   -45.753
25.5649     36.041   -46.651
25.9368     36.518   -47.495
26.3141     37.015   -48.307
26.6968     37.519   -49.157
27.0851     38.022   -50.114
27.4791     38.512   -51.149
27.8788     38.983   -52.236
28.2843     39.437   -53.348
28.6957     39.886   -54.416
29.1131     40.338   -55.431
29.5365     40.805   -56.426
29.9661     41.288   -57.419
30.4020     41.784   -58.463
30.8442     42.281   -59.584
31.2929     42.767   -60.772
31.7480     43.243   -62.016
32.2098     43.714   -63.286
32.6783     44.181   -64.536
33.1536     44.663   -65.792
33.6359     45.166   -67.111
34.1251     45.681   -68.426
34.6215     46.186   -69.895
35.1250     46.663   -71.475
35.6359     47.115   -72.893
36.1543     47.552   -74.284
36.6802     47.995   -75.712
37.2137     48.464   -77.084
37.7550     48.960   -78.536
38.3041     49.468   -80.125
38.8613     49.968   -81.790
39.4265     50.453   -83.414
40.0000     50.927   -84.993
40.5818     51.401   -86.589
41.1721     51.880   -88.237
41.7710     52.364   -89.948
42.3785     52.850   -91.734
42.9949     53.336   -93.590
43.6203     53.822   -95.454
44.2548     54.305   -97.352
44.8985     54.787   -99.284
45.5515     55.273  -101.218
46.2141     55.756  -103.209
46.8863     56.237  -105.262
47.5683     56.708  -107.337
48.2602     57.175  -109.457
48.9621     57.643  -111.637
49.6743     58.109  -113.860
50.3968     58.579  -116.161
51.1299     59.052  -118.530
51.8736     59.520  -120.940
52.6281     59.983  -123.368
53.3936     60.439  -125.790
54.1702     60.891  -128.273
54.9581     61.339  -130.872
55.7575     61.779  -133.548
56.5685     62.211  -136.324
57.3914     62.632  -139.163
58.2261     63.043  -141.989
59.0730     63.448  -144.826
59.9323     63.848  -147.698
60.8040     64.244  -150.604
61.6884     64.635  -153.577
62.5857     65.017  -156.590
63.4960     65.387  -159.677
64.4196     65.740  -162.844
65.3566     66.074  -166.050
66.3073     66.393  -169.294
67.2717     66.700  -172.528
68.2502     66.999  -175.722
69.2429     67.292  -178.911
70.2501     67.578   177.899
71.2719     67.852   174.665
72.3086     68.110   171.380
73.3603     68.351   168.078
74.4274     68.577   164.785
75.5099     68.792   161.525
76.6083     68.996   158.297
77.7226     69.191   155.086
78.8531     69.373   151.883
80.0000     69.536   148.689
81.1636     69.681   145.508
82.3442     69.814   142.389
83.5419     69.938   139.348
84.7570     70.059   136.340
85.9899     70.176   133.375
87.2406     70.287   130.453
88.5096     70.387   127.535
89.7970     70.477   124.639
91.1031     70.557   121.799
92.4282     70.627   119.000
93.7726     70.692   116.240
95.1366     70.750   113.531
96.5204     70.799   110.860
97.9243     70.843   108.237
99.3486     70.878   105.660
100.794     70.907   103.121
102.260     70.932   100.643
103.747     70.948    98.209
105.256     70.960    95.829
106.787     70.969    93.519
108.340     70.976    91.257
109.916     70.982    89.050
111.515     70.987    86.885
113.137     70.989    84.770
114.783     70.986    82.684
116.452     70.982    80.640
118.146     70.978    78.647
119.865     70.973    76.695
121.608     70.969    74.755
123.377     70.964    72.862
125.171     70.954    70.992
126.992     70.944    69.162
128.839     70.935    67.374
130.713     70.927    65.636
132.615     70.928    63.905
134.543     70.928    62.183
136.500     70.928    60.445
138.486     70.926    58.686
140.500     70.914    56.934
142.544     70.899    55.211
144.617     70.881    53.523
146.721     70.861    51.886
148.855     70.845    50.276
151.020     70.831    48.679
153.217     70.815    47.071
155.445     70.796    45.483
157.706     70.777    43.911
160.000     70.754    42.349
162.327     70.728    40.850
164.688     70.705    39.386
167.084     70.683    37.936
169.514     70.662    36.504
171.980     70.644    35.069
174.481     70.623    33.627
177.019     70.597    32.207
179.594     70.566    30.877
182.206     70.543    29.623
184.856     70.533    28.409
187.545     70.538    27.177
190.273     70.553    25.861
193.041     70.568    24.470
195.849     70.577    23.026
198.697     70.580    21.572
201.587     70.585    20.122
204.520     70.590    18.585
207.494     70.583    16.980
210.512     70.560    15.354
213.574     70.514    13.765
216.681     70.456    12.296
219.833     70.397    10.919
223.030     70.336     9.660
226.274     70.290     8.504
229.565     70.260     7.358
232.905     70.234     6.215
236.292     70.224     5.106
239.729     70.229     3.905
243.216     70.233     2.579
246.754     70.229     1.151
250.343     70.206    -0.323
253.984     70.166    -1.745
257.678     70.120    -3.065
261.426     70.078    -4.311
265.229     70.054    -5.509
269.087     70.043    -6.852
273.001     70.020    -8.275
276.972     69.986    -9.751
281.000     69.930   -11.195
285.088     69.865   -12.446
289.234     69.815   -13.598
293.441     69.780   -14.725
297.709     69.759   -15.876
302.040     69.744   -17.183
306.433     69.713   -18.489
310.890     69.685   -19.775
315.412     69.663   -21.142
320.000     69.639   -22.514
324.655     69.615   -24.013
329.377     69.575   -25.581
334.168     69.521   -27.075
339.028     69.467   -28.536
343.959     69.418   -30.018
348.962     69.373   -31.558
354.038     69.308   -33.253
359.188     69.210   -34.944
364.412     69.088   -36.459
369.713     68.966   -37.835
375.090     68.847   -39.070
380.546     68.738   -40.250
386.081     68.648   -41.405
391.697     68.545   -42.583
397.394     68.456   -43.729
403.175     68.382   -44.901
409.039     68.289   -46.247
414.989     68.176   -47.644
421.025     68.023   -48.808
427.149     67.864   -49.726
433.362     67.735   -50.295
439.665     67.667   -50.796
446.060     67.654   -51.589
452.548     67.634   -52.700
459.131     67.566   -53.896
465.809     67.503   -54.875
472.584     67.452   -55.862
479.458     67.405   -56.651
486.432     67.439   -57.455
493.507     67.490   -58.952
500.686     67.479   -60.743
507.968     67.455   -62.519
515.357     67.366   -64.588
522.853     67.233   -66.396
530.458     67.082   -67.611
538.174     66.979   -68.733
546.002     66.910   -69.718
553.943     66.920   -70.509
562.001     67.007   -72.156
570.175     67.065   -74.739
578.469     66.992   -77.991
586.883     66.739   -81.325
595.419     66.382   -83.835
604.080     65.985   -85.284
612.866     65.624   -85.442
621.780     65.521   -85.520
630.824     65.473   -86.405
640.000     65.381   -87.699
649.309     65.279   -89.558
658.753     65.047   -91.152
668.335     64.809   -91.858
678.056     64.685   -92.441
687.919     64.647   -93.372
697.925     64.614   -94.928
708.077     64.598   -97.015
718.376     64.537   -99.630
728.825     64.392  -102.831
739.426     64.025  -105.971
750.181     63.547  -107.994
761.093     63.109  -108.975
772.163     62.773  -109.884
783.394     62.376  -110.648
794.789     62.020  -110.660
806.349     61.799  -110.398
818.078     61.599  -110.015
829.977     61.561  -109.273
842.050     61.726  -109.483
854.298     61.785  -111.086
866.724     61.775  -112.946
879.330     61.824  -115.208
892.120     61.617  -118.620
905.097     61.257  -121.057
918.262     60.856  -122.544
931.618     60.404  -122.575
945.169     60.042  -121.956
958.917     59.839  -121.427
972.864     59.725  -120.691
987.015     59.674  -120.786
1001.37     59.642  -120.822
1015.94     59.636  -120.553
1030.71     59.631  -120.969
1045.71     59.730  -121.333
1060.92     59.804  -123.277
1076.35     59.777  -125.109
1092.00     59.581  -126.870
1107.89     59.349  -128.041
1124.00     59.222  -128.450
1140.35     59.026  -129.792
1156.94     58.975  -130.795
1173.77     58.942  -132.070
1190.84     58.789  -132.719
1208.16     58.997  -132.746
1225.73     59.011  -135.835
1243.56     58.842  -136.921
1261.65     58.946  -137.837
1280.00     58.882  -140.000
1298.62     58.953  -141.433
1317.51     59.035  -144.902
1336.67     58.744  -148.253
1356.11     58.497  -150.090
1375.84     58.155  -152.947
1395.85     57.654  -152.925
1416.15     57.473  -152.247
1436.75     57.403  -153.296
1457.65     57.302  -153.045
1478.85     57.308  -153.030
1500.36     57.527  -152.637
1522.19     57.792  -151.565
1544.33     58.337  -152.721
1566.79     58.881  -155.061
1589.58     59.199  -159.162
1612.70     59.364  -164.476
1636.16     59.365  -168.748
1659.95     59.248  -172.353
1684.10     59.205  -174.418
1708.60     59.277  -176.928
1733.45     59.421   179.298
1758.66     59.402   175.841
1784.24     59.453   172.059
1810.19     59.433   168.988
1836.52     59.477   166.804
1863.24     59.861   163.984
1890.34     60.212   160.612
1917.83     60.455   155.909
1945.73     60.672   150.630
1974.03     60.648   145.829
2002.74     60.428   141.163
2031.87     60.184   138.317
2061.43     59.966   136.650
2091.41     59.809   134.376
2121.83     59.755   132.654
2152.69     59.795   130.082
2184.01     59.877   125.928
2215.77     59.900   122.068
2248.00     59.912   118.654
2280.70     59.906   115.106
2313.87     59.980   111.265
2347.53     60.123   106.615
2381.68     60.289   101.901
2416.32     60.554    96.494
2451.46     60.719    90.915
2487.12     60.762    86.440
2523.30     60.889    82.563
2560.00     60.964    77.873
2597.24     61.133    72.886
2635.01     61.344    67.091
2673.34     61.445    60.848
2712.23     61.509    55.026
2751.68     61.513    49.196
2791.70     61.391    43.761
2832.31     61.211    39.112
2873.50     61.070    34.479
2915.30     61.000    30.101
2957.70     60.997    25.682
3000.72     61.065    20.288
3044.37     61.142    14.736
3088.65     61.172     8.160
3133.58     61.017     0.711
3179.16     60.636    -5.645
3225.40     60.178   -10.913
3272.31     59.700   -15.410
3319.91     59.207   -18.476
3368.20     58.912   -20.661
3417.19     58.873   -23.676
3466.89     58.829   -27.764
3517.32     58.826   -31.984
3568.48     58.864   -37.287
3620.39     58.729   -42.880
3673.05     58.632   -47.595
3726.47     58.600   -53.147
3780.67     58.390   -59.151
3835.67     58.197   -64.826
3891.46     57.843   -71.381
3948.06     57.142   -76.607
4005.49     56.460   -79.931
4063.75     55.744   -82.670
4122.86     54.976   -82.629
4182.82     54.466   -82.411
4243.66     53.994   -81.212
4305.39     53.697   -78.382
4368.01     53.791   -76.432
4431.55     54.189   -74.853
4496.01     54.778   -74.867
4561.40     55.474   -76.940
4627.75     56.134   -80.963
4695.06     56.538   -86.895
4763.35     56.727   -92.857
4832.64     56.748   -99.231
4902.93     56.603  -104.270
4974.24     56.449  -107.860
5046.60     56.409  -110.435
5120.00     56.619  -111.934
5194.47     57.044  -114.859
5270.03     57.426  -119.295
5346.68     57.681  -124.778
5424.45     57.764  -130.610
5503.35     57.836  -136.453
5583.40     57.853  -142.681
5664.61     57.777  -149.378
5747.01     57.612  -156.769
5830.60     57.295  -163.929
5915.41     56.839  -171.336
6001.45     56.334  -177.468
6088.74     55.759   177.455
6177.30     55.299   172.964
6267.15     54.849   169.578
6358.31     54.360   166.968
6450.80     53.991   164.493
6544.62     53.718   162.814
6639.82     53.385   159.901
6736.40     53.046   157.398
6834.38     52.560   154.921
6933.79     52.020   153.140
7034.64     51.508   152.905
7136.96     51.194   152.913
7240.77     51.419   152.043
7346.09     51.891   149.846
7452.94     52.248   144.712
7561.35     52.703   138.970
7671.33     52.929   133.095
7782.91     52.812   127.771
7896.12     52.677   124.143
8010.97     52.540   120.811
8127.49     52.417   118.038
8245.71     52.441   115.218
8365.65     52.505   110.994
8487.33     52.591   105.976
8610.78     52.635    99.684
8736.03     52.490    92.130
8863.09     52.187    84.893
8992.01     51.850    78.699
9122.80     51.405    74.346
9255.50     51.030    71.912
9390.12     50.783    69.748
9526.70     50.671    66.762
9665.27     50.731    62.700
9805.86     50.781    57.029
9948.49     50.853    49.267
10093.2     50.934    39.790
10240.0     50.717    28.879
10388.9     50.168    17.409
10540.1     49.170     8.359
10693.4     47.844     2.967
10848.9     46.313     1.855
11006.7     45.299     4.519
11166.8     45.062     6.133
11329.2     45.119     5.765
11494.0     45.389     3.189
11661.2     45.487    -0.757
11830.8     45.503    -3.414
12002.9     45.947    -5.462
12177.5     46.836    -9.073
12354.6     48.010   -16.113
12534.3     49.003   -29.367
12716.6     49.267   -47.966
12901.6     48.739   -66.481
13089.2     47.505   -81.953
13279.6     45.646   -89.893
13472.8     43.715   -89.905
13668.8     42.427   -88.063
13867.6     41.896   -86.418
14069.3     42.024   -88.120
14273.9     42.152   -96.609
14481.5     41.668  -105.603
14692.2     40.938  -114.647
14905.9     40.152  -124.125
15122.7     39.281  -135.311
15342.7     38.264  -144.462
15565.8     37.155  -153.052
15792.2     35.629  -150.931
16021.9     34.034  -139.236
16255.0     32.868  -124.929
16491.4     32.924  -107.610
16731.3     33.293   -87.302
16974.7     34.012   -77.002
17221.6     34.875   -73.711
17472.1     35.464   -73.428
17726.2     35.645   -77.348
17984.0     35.912   -87.500
18245.6     36.089   -95.313
18511.0     36.136  -101.464
18780.2     36.701  -106.873
19053.4     37.693  -113.030
19330.5     38.768  -121.401
19611.7     39.760  -133.596
19897.0     40.434  -147.899
20186.4     40.798  -164.745
20480.0     40.763   176.100
20777.9     40.270   158.528
21080.1     39.384   143.932
21386.7     38.596   140.540
21697.8     38.143   140.969
22013.4     37.925   139.180
22333.6     38.272   138.994
22658.4     38.756   129.858
22988.0     38.737   110.180
23322.4     38.123    90.055
23661.6     36.563    72.281
