Freq[Hz]     dBSPL  Phase[Deg]
5.00000    -14.769   -15.583
5.07273    -14.426   -15.667
5.14651    -14.055   -15.756
5.22137    -13.644   -15.854
5.29732    -13.216   -15.955
5.37437    -12.771   -16.062
5.45254    -12.325   -16.170
5.53185    -11.879   -16.279
5.61231    -11.433   -16.390
5.69394    -10.987   -16.502
5.77676    -10.541   -16.617
5.86079    -10.095   -16.732
5.94604     -9.649   -16.849
6.03252     -9.203   -16.968
6.12027     -8.757   -17.089
6.20929     -8.311   -17.211
6.29961     -7.865   -17.335
6.39124     -7.419   -17.460
6.48420     -6.973   -17.587
6.57851     -6.527   -17.716
6.67420     -6.081   -17.847
6.77128     -5.635   -17.980
6.86977     -5.188   -18.115
6.96969     -4.742   -18.251
7.07107     -4.296   -18.390
7.17392     -3.849   -18.531
7.27827     -3.403   -18.673
7.38413     -2.956   -18.818
7.49154     -2.510   -18.965
7.60050     -2.063   -19.115
7.71105     -1.617   -19.266
7.82321     -1.170   -19.420
7.93701     -0.723   -19.576
8.05245     -0.277   -19.735
8.16958      0.170   -19.896
8.28841      0.617   -20.060
8.40896      1.064   -20.226
8.53128      1.511   -20.395
8.65537      1.958   -20.566
8.78126      2.405   -20.740
8.90899      2.852   -20.916
9.03857      3.299   -21.096
9.17004      3.746   -21.278
9.30342      4.194   -21.462
9.43874      4.641   -21.650
9.57603      5.088   -21.840
9.71532      5.536   -22.033
9.85663      5.983   -22.229
10.0000      6.430   -22.428
10.1455      6.878   -22.630
10.2930      7.326   -22.835
10.4427      7.773   -23.042
10.5946      8.221   -23.253
10.7487      8.669   -23.467
10.9051      9.117   -23.685
11.0637      9.565   -23.905
11.2246     10.013   -24.129
11.3879     10.461   -24.356
11.5535     10.909   -24.587
11.7216     11.358   -24.821
11.8921     11.806   -25.059
12.0650     12.255   -25.301
12.2405     12.703   -25.547
12.4186     13.152   -25.796
12.5992     13.601   -26.049
12.7825     14.050   -26.306
12.9684     14.499   -26.567
13.1570     14.948   -26.833
13.3484     15.397   -27.102
13.5426     15.847   -27.376
13.7395     16.296   -27.653
13.9394     16.746   -27.936
14.1421     17.196   -28.222
14.3478     17.645   -28.513
14.5565     18.095   -28.808
14.7683     18.546   -29.109
14.9831     18.996   -29.413
15.2010     19.446   -29.723
15.4221     19.897   -30.038
15.6464     20.348   -30.357
15.8740     20.799   -30.682
16.1049     21.250   -31.012
16.3392     21.701   -31.347
16.5768     22.152   -31.688
16.8179     22.604   -32.034
17.0626     23.056   -32.386
17.3107     23.508   -32.744
17.5625     23.960   -33.107
17.8180     24.412   -33.476
18.0771     24.865   -33.852
18.3401     25.317   -34.233
18.6068     25.770   -34.621
18.8775     26.223   -35.016
19.1521     26.677   -35.416
19.4306     27.131   -35.824
19.7133     27.592   -36.224
20.0000     28.070   -36.597
20.2909     28.581   -36.960
20.5860     29.132   -37.377
20.8855     29.694   -38.040
21.1893     30.240   -39.022
21.4975     30.738   -40.149
21.8102     31.162   -41.190
22.1274     31.530   -41.932
22.4492     31.891   -42.242
22.7758     32.284   -42.183
23.1071     32.726   -42.024
23.4432     33.223   -42.031
23.7841     33.745   -42.296
24.1301     34.259   -42.817
24.4811     34.754   -43.538
24.8372     35.228   -44.394
25.1984     35.692   -45.306
25.5649     36.157   -46.188
25.9368     36.635   -47.037
26.3141     37.131   -47.856
26.6968     37.635   -48.709
27.0851     38.134   -49.655
27.4791     38.623   -50.664
27.8788     39.093   -51.714
28.2843     39.549   -52.784
28.6957     40.001   -53.810
29.1131     40.459   -54.793
29.5365     40.931   -55.772
29.9661     41.419   -56.763
30.4020     41.918   -57.820
30.8442     42.416   -58.960
31.2929     42.902   -60.156
31.7480     43.378   -61.401
32.2098     43.848   -62.661
32.6783     44.318   -63.887
33.1536     44.802   -65.130
33.6359     45.304   -66.458
34.1251     45.819   -67.796
34.6215     46.320   -69.293
35.1250     46.791   -70.887
35.6359     47.236   -72.287
36.1543     47.669   -73.637
36.6802     48.110   -75.014
37.2137     48.578   -76.339
37.7550     49.074   -77.762
38.3041     49.584   -79.330
38.8613     50.083   -80.977
39.4265     50.568   -82.584
40.0000     51.042   -84.146
40.5818     51.514   -85.727
41.1721     51.990   -87.365
41.7710     52.469   -89.053
42.3785     52.948   -90.786
42.9949     53.431   -92.561
43.6203     53.921   -94.341
44.2548     54.412   -96.165
44.8985     54.904   -98.055
45.5515     55.399   -99.984
46.2141     55.887  -101.993
46.8863     56.368  -104.059
47.5683     56.839  -106.137
48.2602     57.306  -108.253
48.9621     57.773  -110.420
49.6743     58.240  -112.635
50.3968     58.709  -114.929
51.1299     59.180  -117.287
51.8736     59.646  -119.687
52.6281     60.104  -122.099
53.3936     60.556  -124.497
54.1702     61.005  -126.938
54.9581     61.450  -129.481
55.7575     61.891  -132.099
56.5685     62.325  -134.822
57.3914     62.751  -137.621
58.2261     63.166  -140.423
59.0730     63.573  -143.247
59.9323     63.973  -146.107
60.8040     64.369  -149.001
61.6884     64.759  -151.957
62.5857     65.140  -154.947
63.4960     65.509  -158.003
64.4196     65.862  -161.136
65.3566     66.198  -164.312
66.3073     66.518  -167.533
67.2717     66.824  -170.753
68.2502     67.120  -173.929
69.2429     67.409  -177.086
70.2501     67.694   179.767
71.2719     67.969   176.579
72.3086     68.230   173.330
73.3603     68.472   170.056
74.4274     68.699   166.782
75.5099     68.913   163.541
76.6083     69.115   160.342
77.7226     69.308   157.165
78.8531     69.489   154.002
80.0000     69.651   150.853
81.1636     69.796   147.727
82.3442     69.929   144.669
83.5419     70.056   141.685
84.7570     70.180   138.725
85.9899     70.303   135.789
87.2406     70.419   132.880
88.5096     70.521   129.969
89.7970     70.612   127.080
91.1031     70.691   124.251
92.4282     70.760   121.469
93.7726     70.824   118.733
95.1366     70.879   116.048
96.5204     70.926   113.408
97.9243     70.968   110.822
99.3486     71.002   108.287
100.794     71.029   105.797
102.260     71.053   103.366
103.747     71.071   100.980
105.256     71.085    98.642
106.787     71.096    96.356
108.340     71.106    94.104
109.916     71.112    91.894
111.515     71.114    89.717
113.137     71.109    87.594
114.783     71.095    85.524
116.452     71.079    83.527
118.146     71.063    81.609
119.865     71.048    79.758
121.608     71.040    77.929
123.377     71.033    76.143
125.171     71.024    74.370
126.992     71.015    72.624
128.839     71.007    70.917
130.713     71.001    69.266
132.615     71.004    67.617
134.543     71.008    65.987
136.500     71.018    64.326
138.486     71.025    62.606
140.500     71.019    60.868
142.544     71.007    59.133
144.617     70.983    57.433
146.721     70.955    55.830
148.855     70.932    54.285
151.020     70.915    52.783
153.217     70.903    51.266
155.445     70.891    49.723
157.706     70.877    48.146
160.000     70.851    46.556
162.327     70.815    45.031
164.688     70.776    43.574
167.084     70.736    42.171
169.514     70.697    40.814
171.980     70.659    39.492
174.481     70.622    38.209
177.019     70.586    36.981
179.594     70.555    35.853
182.206     70.540    34.767
184.856     70.541    33.665
187.545     70.557    32.485
190.273     70.573    31.183
193.041     70.582    29.799
195.849     70.577    28.381
198.697     70.560    26.986
201.587     70.542    25.640
204.520     70.523    24.264
207.494     70.494    22.888
210.512     70.459    21.546
213.574     70.412    20.247
216.681     70.358    19.029
219.833     70.302    17.910
223.030     70.253    16.934
226.274     70.231    16.015
229.565     70.227    15.034
232.905     70.231    14.017
236.292     70.255    12.930
239.729     70.280    11.631
243.216     70.285    10.192
246.754     70.267     8.715
250.343     70.230     7.253
253.984     70.172     5.829
257.678     70.095     4.594
261.426     70.028     3.515
265.229     69.980     2.514
269.087     69.948     1.467
273.001     69.930     0.320
276.972     69.899    -0.942
281.000     69.852    -2.173
285.088     69.801    -3.306
289.234     69.753    -4.369
293.441     69.724    -5.434
297.709     69.704    -6.607
302.040     69.670    -7.944
306.433     69.608    -9.330
310.890     69.508   -10.512
315.412     69.415   -11.459
320.000     69.349   -12.240
324.655     69.319   -13.014
329.377     69.323   -13.970
334.168     69.337   -15.183
339.028     69.330   -16.626
343.959     69.287   -18.282
348.962     69.193   -19.841
354.038     69.073   -21.235
359.188     68.940   -22.458
364.412     68.800   -23.413
369.713     68.700   -24.132
375.090     68.647   -24.950
380.546     68.589   -25.998
386.081     68.525   -27.091
391.697     68.450   -28.189
397.394     68.370   -29.467
403.175     68.268   -30.823
409.039     68.112   -32.065
414.989     67.948   -33.181
421.025     67.741   -33.926
427.149     67.551   -34.151
433.362     67.447   -34.192
439.665     67.404   -34.373
446.060     67.420   -34.895
452.548     67.430   -36.143
459.131     67.328   -37.567
465.809     67.183   -38.653
472.584     66.985   -39.584
479.458     66.759   -39.510
486.432     66.672   -38.840
493.507     66.711   -38.606
500.686     66.787   -38.686
507.968     66.926   -39.406
515.357     67.011   -41.077
522.853     66.970   -43.015
530.458     66.882   -44.602
538.174     66.737   -46.099
546.002     66.572   -46.969
553.943     66.519   -47.617
562.001     66.453   -49.088
570.175     66.284   -50.365
578.469     66.105   -51.620
586.883     65.790   -52.684
595.419     65.470   -52.646
604.080     65.250   -52.088
612.866     65.162   -50.921
621.780     65.291   -50.371
630.824     65.444   -50.958
640.000     65.522   -51.892
649.309     65.555   -53.367
658.753     65.501   -54.919
668.335     65.412   -56.409
678.056     65.237   -57.647
687.919     65.075   -58.828
697.925     64.851   -59.904
708.077     64.572   -60.177
718.376     64.430   -59.751
728.825     64.438   -60.326
739.426     64.275   -61.605
750.181     64.019   -61.855
761.093     63.853   -61.729
772.163     63.667   -61.999
783.394     63.412   -61.237
794.789     63.324   -60.034
806.349     63.341   -58.981
818.078     63.469   -57.634
829.977     63.726   -57.320
842.050     63.907   -58.057
854.298     63.979   -58.473
866.724     64.089   -59.514
879.330     64.159   -61.141
892.120     64.093   -62.214
905.097     64.074   -62.944
918.262     64.124   -63.389
931.618     64.186   -63.550
945.169     64.305   -64.025
958.917     64.423   -64.486
972.864     64.618   -65.267
987.015     64.791   -66.638
1001.37     64.942   -67.799
1015.94     65.171   -69.242
1030.71     65.360   -71.170
1045.71     65.453   -73.664
1060.92     65.485   -76.036
1076.35     65.499   -78.104
1092.00     65.441   -79.976
1107.89     65.482   -81.260
1124.00     65.659   -82.906
1140.35     65.715   -85.915
1156.94     65.621   -89.232
1173.77     65.418   -91.679
1190.84     65.229   -93.001
1208.16     65.219   -94.681
1225.73     65.128   -96.108
1243.56     65.174   -97.340
1261.65     65.277   -99.723
1280.00     65.269  -101.972
1298.62     65.291  -104.573
1317.51     65.187  -107.221
1336.67     65.059  -108.634
1356.11     65.069  -110.282
1375.84     65.079  -112.446
1395.85     65.097  -114.660
1416.15     65.089  -117.841
1436.75     64.943  -120.820
1457.65     64.754  -123.150
1478.85     64.596  -125.070
1500.36     64.577  -126.817
1522.19     64.560  -129.033
1544.33     64.526  -131.743
1566.79     64.439  -134.041
1589.58     64.311  -136.138
1612.70     64.230  -137.851
1636.16     64.332  -139.500
1659.95     64.489  -142.133
1684.10     64.651  -145.982
1708.60     64.681  -150.088
1733.45     64.603  -154.333
1758.66     64.414  -158.221
1784.24     64.162  -161.827
1810.19     63.905  -165.302
1836.52     63.663  -168.403
1863.24     63.442  -171.454
1890.34     63.276  -174.744
1917.83     63.073  -177.450
1945.73     62.864  -179.857
1974.03     62.712   178.043
2002.74     62.597   176.597
2031.87     62.625   174.751
2061.43     62.754   172.515
2091.41     62.966   169.712
2121.83     63.149   165.159
2152.69     63.189   160.187
2184.01     63.062   155.363
2215.77     62.876   150.980
2248.00     62.686   147.268
2280.70     62.480   143.429
2313.87     62.224   139.996
2347.53     62.077   137.258
2381.68     62.012   134.090
2416.32     61.932   131.019
2451.46     61.879   128.230
2487.12     61.887   125.569
2523.30     61.926   122.425
2560.00     61.901   118.596
2597.24     61.837   115.051
2635.01     61.851   111.343
2673.34     61.795   106.659
2712.23     61.577   102.614
2751.68     61.401    99.135
2791.70     61.185    95.680
2832.31     60.954    92.544
2873.50     60.783    89.585
2915.30     60.708    86.788
2957.70     60.676    83.645
3000.72     60.608    81.032
3044.37     60.657    79.289
3088.65     60.761    76.932
3133.58     60.824    74.431
3179.16     61.038    71.765
3225.40     61.275    67.751
3272.31     61.428    63.385
3319.91     61.590    58.785
3368.20     61.620    54.050
3417.19     61.532    50.355
3466.89     61.425    47.004
3517.32     61.322    44.452
3568.48     61.371    42.661
3620.39     61.584    40.172
3673.05     61.858    36.826
3726.47     62.127    32.452
3780.67     62.195    27.400
3835.67     62.086    22.356
3891.46     61.863    17.967
3948.06     61.627    15.145
4005.49     61.510    12.795
4063.75     61.494    10.091
4122.86     61.528     6.791
4182.82     61.542     2.643
4243.66     61.384    -1.713
4305.39     61.198    -5.449
4368.01     61.021    -8.531
4431.55     60.850   -11.207
4496.01     60.755   -13.903
4561.40     60.690   -17.380
4627.75     60.528   -20.957
4695.06     60.409   -24.350
4763.35     60.221   -27.923
4832.64     59.956   -31.027
4902.93     59.654   -33.473
4974.24     59.340   -35.029
5046.60     59.149   -35.514
5120.00     59.219   -36.028
5194.47     59.472   -37.670
5270.03     59.692   -40.868
5346.68     59.744   -45.035
5424.45     59.654   -49.301
5503.35     59.404   -53.184
5583.40     59.115   -56.840
5664.61     58.814   -60.069
5747.01     58.423   -63.183
5830.60     57.986   -66.308
5915.41     57.522   -69.198
6001.45     57.008   -71.780
6088.74     56.608   -74.277
6177.30     56.290   -76.587
6267.15     56.007   -79.567
6358.31     55.646   -82.502
6450.80     55.144   -84.537
6544.62     54.516   -84.706
6639.82     53.960   -83.491
6736.40     53.669   -80.594
6834.38     53.691   -78.044
6933.79     53.833   -76.721
7034.64     54.077   -76.169
7136.96     54.339   -77.992
7240.77     54.398   -81.668
7346.09     54.144   -84.685
7452.94     53.984   -86.097
7561.35     53.937   -87.136
7671.33     53.721   -86.996
7782.91     53.886   -85.238
7896.12     54.260   -85.928
8010.97     54.362   -88.692
8127.49     54.400   -90.673
8245.71     54.452   -93.391
8365.65     54.282   -96.060
8487.33     54.033   -96.563
8610.78     53.999   -97.055
8736.03     53.915   -99.237
8863.09     53.630  -100.444
8992.01     53.565  -101.015
9122.80     53.677  -103.007
9255.50     53.589  -105.018
9390.12     53.538  -105.806
9526.70     53.687  -107.355
9665.27     53.706  -110.517
9805.86     53.557  -112.551
9948.49     53.578  -114.594
10093.2     53.580  -117.697
10240.0     53.552  -120.272
10388.9     53.605  -123.556
10540.1     53.435  -127.556
10693.4     53.148  -129.648
10848.9     52.921  -131.496
11006.7     52.547  -131.979
11166.8     52.453  -131.008
11329.2     52.587  -131.447
11494.0     52.708  -131.761
11661.2     53.076  -132.929
11830.8     53.382  -135.832
12002.9     53.669  -138.539
12177.5     54.002  -142.615
12354.6     54.172  -147.684
12534.3     54.161  -152.863
12716.6     53.953  -157.564
12901.6     53.706  -161.371
13089.2     53.528  -164.467
13279.6     53.432  -167.845
13472.8     53.350  -172.189
13668.8     53.141  -176.623
13867.6     52.912   178.972
14069.3     52.577   174.077
14273.9     52.210   169.971
14481.5     51.831   165.215
14692.2     51.311   160.926
14905.9     50.746   157.107
15122.7     49.961   153.681
15342.7     49.033   152.539
15565.8     48.161   153.076
15792.2     47.377   155.003
16021.9     46.992   158.387
16255.0     47.047   160.974
16491.4     47.337   162.368
16731.3     47.729   162.130
16974.7     48.070   160.647
17221.6     48.327   158.626
17472.1     48.593   155.633
17726.2     48.900   152.612
17984.0     49.223   148.223
18245.6     49.437   142.364
18511.0     49.459   135.683
18780.2     49.164   129.198
19053.4     48.673   122.949
19330.5     47.974   118.286
19611.7     47.244   115.745
19897.0     46.837   114.262
20186.4     46.767   112.228
20480.0     47.010   109.349
20777.9     47.409   104.333
21080.1     47.597    97.366
21386.7     47.451    90.283
21697.8     46.985    83.291
22013.4     46.181    77.337
22333.6     45.211    74.818
22658.4     44.398    73.887
22988.0     43.869    73.012
23322.4     43.298    71.992
23661.6     42.588    70.890
