Freq[Hz]     dBSPL  Phase[Deg]
5.00000    -14.704   -14.869
5.07273    -14.362   -14.955
5.14651    -13.993   -15.048
5.22137    -13.583   -15.150
5.29732    -13.157   -15.257
5.37437    -12.713   -15.369
5.45254    -12.269   -15.482
5.53185    -11.826   -15.597
5.61231    -11.382   -15.714
5.69394    -10.938   -15.831
5.77676    -10.494   -15.951
5.86079    -10.051   -16.071
5.94604     -9.607   -16.194
6.03252     -9.163   -16.317
6.12027     -8.719   -16.443
6.20929     -8.275   -16.570
6.29961     -7.831   -16.698
6.39124     -7.387   -16.828
6.48420     -6.944   -16.960
6.57851     -6.499   -17.094
6.67420     -6.055   -17.229
6.77128     -5.611   -17.367
6.86977     -5.167   -17.506
6.96969     -4.723   -17.647
7.07107     -4.279   -17.791
7.17392     -3.834   -17.936
7.27827     -3.390   -18.084
7.38413     -2.945   -18.234
7.49154     -2.501   -18.386
7.60050     -2.056   -18.541
7.71105     -1.611   -18.698
7.82321     -1.167   -18.857
7.93701     -0.722   -19.019
8.05245     -0.277   -19.184
8.16958      0.168   -19.351
8.28841      0.613   -19.521
8.40896      1.058   -19.693
8.53128      1.503   -19.869
8.65537      1.948   -20.047
8.78126      2.393   -20.227
8.90899      2.838   -20.411
9.03857      3.283   -20.597
9.17004      3.728   -20.787
9.30342      4.173   -20.979
9.43874      4.619   -21.173
9.57603      5.064   -21.371
9.71532      5.509   -21.572
9.85663      5.955   -21.775
10.0000      6.400   -21.982
10.1455      6.846   -22.191
10.2930      7.291   -22.404
10.4427      7.737   -22.620
10.5946      8.183   -22.838
10.7487      8.628   -23.060
10.9051      9.074   -23.286
11.0637      9.520   -23.515
11.2246      9.966   -23.747
11.3879     10.412   -23.983
11.5535     10.859   -24.222
11.7216     11.305   -24.465
11.8921     11.752   -24.712
12.0650     12.198   -24.963
12.2405     12.645   -25.218
12.4186     13.092   -25.476
12.5992     13.539   -25.739
12.7825     13.985   -26.006
12.9684     14.433   -26.277
13.1570     14.880   -26.552
13.3484     15.327   -26.832
13.5426     15.774   -27.116
13.7395     16.222   -27.404
13.9394     16.669   -27.697
14.1421     17.117   -27.994
14.3478     17.565   -28.296
14.5565     18.013   -28.602
14.7683     18.461   -28.913
14.9831     18.909   -29.230
15.2010     19.358   -29.551
15.4221     19.806   -29.877
15.6464     20.255   -30.208
15.8740     20.704   -30.545
16.1049     21.153   -30.887
16.3392     21.602   -31.235
16.5768     22.052   -31.588
16.8179     22.502   -31.947
17.0626     22.951   -32.312
17.3107     23.401   -32.683
17.5625     23.851   -33.059
17.8180     24.302   -33.442
18.0771     24.752   -33.831
18.3401     25.203   -34.227
18.6068     25.654   -34.629
18.8775     26.105   -35.037
19.1521     26.557   -35.452
19.4306     27.008   -35.875
19.7133     27.468   -36.290
20.0000     27.944   -36.682
20.2909     28.455   -37.070
20.5860     29.008   -37.521
20.8855     29.573   -38.229
21.1893     30.124   -39.268
21.4975     30.625   -40.457
21.8102     31.046   -41.556
22.1274     31.406   -42.343
22.4492     31.757   -42.672
22.7758     32.141   -42.600
23.1071     32.579   -42.408
23.4432     33.076   -42.376
23.7841     33.602   -42.616
24.1301     34.119   -43.148
24.4811     34.616   -43.904
24.8372     35.088   -44.806
25.1984     35.550   -45.759
25.5649     36.014   -46.661
25.9368     36.491   -47.510
26.3141     36.988   -48.321
26.6968     37.493   -49.168
27.0851     37.995   -50.119
27.4791     38.486   -51.148
27.8788     38.957   -52.230
28.2843     39.411   -53.339
28.6957     39.861   -54.403
29.1131     40.314   -55.419
29.5365     40.783   -56.418
29.9661     41.269   -57.418
30.4020     41.765   -58.474
30.8442     42.263   -59.609
31.2929     42.747   -60.808
31.7480     43.222   -62.060
32.2098     43.692   -63.333
32.6783     44.159   -64.581
33.1536     44.641   -65.831
33.6359     45.145   -67.142
34.1251     45.661   -68.444
34.6215     46.169   -69.909
35.1250     46.650   -71.499
35.6359     47.104   -72.936
36.1543     47.542   -74.368
36.6802     47.983   -75.850
37.2137     48.447   -77.259
37.7550     48.936   -78.729
38.3041     49.440   -80.313
38.8613     49.936   -81.955
39.4265     50.419   -83.550
40.0000     50.893   -85.108
40.5818     51.367   -86.697
41.1721     51.846   -88.347
41.7710     52.328   -90.059
42.3785     52.811   -91.834
42.9949     53.295   -93.667
43.6203     53.782   -95.503
44.2548     54.268   -97.376
44.8985     54.755   -99.295
45.5515     55.245  -101.231
46.2141     55.732  -103.237
46.8863     56.213  -105.304
47.5683     56.685  -107.390
48.2602     57.152  -109.520
48.9621     57.620  -111.708
49.6743     58.086  -113.939
50.3968     58.556  -116.248
51.1299     59.029  -118.623
51.8736     59.497  -121.039
52.6281     59.958  -123.471
53.3936     60.413  -125.896
54.1702     60.864  -128.375
54.9581     61.312  -130.968
55.7575     61.753  -133.637
56.5685     62.186  -136.410
57.3914     62.609  -139.253
58.2261     63.021  -142.088
59.0730     63.426  -144.937
59.9323     63.825  -147.820
60.8040     64.220  -150.735
61.6884     64.610  -153.713
62.5857     64.990  -156.724
63.4960     65.360  -159.802
64.4196     65.713  -162.959
65.3566     66.050  -166.164
66.3073     66.371  -169.418
67.2717     66.679  -172.671
68.2502     66.975  -175.886
69.2429     67.265  -179.084
70.2501     67.547   177.736
71.2719     67.821   174.523
72.3086     68.081   171.254
73.3603     68.323   167.960
74.4274     68.552   164.667
75.5099     68.767   161.400
76.6083     68.971   158.169
77.7226     69.166   154.958
78.8531     69.349   151.757
80.0000     69.512   148.562
81.1636     69.657   145.382
82.3442     69.789   142.268
83.5419     69.914   139.240
84.7570     70.036   136.250
85.9899     70.157   133.296
87.2406     70.272   130.376
88.5096     70.377   127.449
89.7970     70.471   124.534
91.1031     70.553   121.673
92.4282     70.624   118.852
93.7726     70.690   116.072
95.1366     70.748   113.344
96.5204     70.797   110.660
97.9243     70.840   108.027
99.3486     70.875   105.444
100.794     70.904   102.903
102.260     70.929   100.424
103.747     70.947    97.985
105.256     70.961    95.596
106.787     70.972    93.269
108.340     70.980    90.986
109.916     70.986    88.753
111.515     70.990    86.565
113.137     70.989    84.431
114.783     70.982    82.337
116.452     70.974    80.302
118.146     70.967    78.331
119.865     70.961    76.408
121.608     70.959    74.500
123.377     70.958    72.634
125.171     70.952    70.777
126.992     70.949    68.953
128.839     70.945    67.168
130.713     70.944    65.423
132.615     70.952    63.673
134.543     70.959    61.917
136.500     70.965    60.127
138.486     70.965    58.305
140.500     70.951    56.490
142.544     70.932    54.717
144.617     70.906    53.004
146.721     70.878    51.383
148.855     70.859    49.818
151.020     70.846    48.275
153.217     70.839    46.709
155.445     70.833    45.127
157.706     70.825    43.518
160.000     70.810    41.893
162.327     70.788    40.322
164.688     70.765    38.793
167.084     70.742    37.287
169.514     70.720    35.795
171.980     70.697    34.304
174.481     70.668    32.824
177.019     70.633    31.396
179.594     70.594    30.101
182.206     70.570    28.904
184.856     70.565    27.739
187.545     70.579    26.530
190.273     70.604    25.196
193.041     70.626    23.754
195.849     70.637    22.252
198.697     70.637    20.751
201.587     70.638    19.281
204.520     70.640    17.756
207.494     70.633    16.180
210.512     70.615    14.587
213.574     70.579    13.005
216.681     70.531    11.492
219.833     70.473    10.040
223.030     70.407     8.745
226.274     70.356     7.598
229.565     70.324     6.495
232.905     70.305     5.439
236.292     70.313     4.393
239.729     70.343     3.177
243.216     70.370     1.770
246.754     70.383     0.212
250.343     70.371    -1.410
253.984     70.337    -3.033
257.678     70.280    -4.544
261.426     70.218    -5.943
265.229     70.161    -7.184
269.087     70.125    -8.404
273.001     70.102    -9.680
276.972     70.077   -11.031
281.000     70.045   -12.409
285.088     70.006   -13.748
289.234     69.961   -15.050
293.441     69.921   -16.289
297.709     69.893   -17.504
302.040     69.871   -18.860
306.433     69.833   -20.236
310.890     69.782   -21.555
315.412     69.735   -22.826
320.000     69.695   -23.984
324.655     69.671   -25.179
329.377     69.663   -26.424
334.168     69.663   -27.778
339.028     69.661   -29.261
343.959     69.658   -30.874
348.962     69.636   -32.604
354.038     69.585   -34.421
359.188     69.506   -36.194
364.412     69.398   -37.840
369.713     69.289   -39.271
375.090     69.194   -40.576
380.546     69.103   -41.903
386.081     69.017   -43.154
391.697     68.928   -44.363
397.394     68.860   -45.590
403.175     68.808   -46.848
409.039     68.745   -48.306
414.989     68.668   -49.890
421.025     68.536   -51.364
427.149     68.383   -52.544
433.362     68.261   -53.361
439.665     68.188   -54.058
446.060     68.181   -54.935
452.548     68.194   -56.267
459.131     68.139   -57.882
465.809     68.059   -59.286
472.584     67.974   -60.771
479.458     67.817   -61.945
486.432     67.712   -62.573
493.507     67.677   -63.360
500.686     67.633   -64.232
507.968     67.661   -64.901
515.357     67.728   -66.166
522.853     67.768   -67.758
530.458     67.781   -69.257
538.174     67.785   -71.019
546.002     67.755   -72.698
553.943     67.772   -73.832
562.001     67.879   -75.614
570.175     67.965   -78.168
578.469     67.974   -81.234
586.883     67.830   -84.861
595.419     67.577   -87.752
604.080     67.260   -89.869
612.866     66.902   -90.918
621.780     66.753   -90.998
630.824     66.734   -91.627
640.000     66.700   -92.808
649.309     66.712   -94.303
658.753     66.654   -96.126
668.335     66.559   -97.659
678.056     66.491   -99.311
687.919     66.454  -100.832
697.925     66.438  -102.570
708.077     66.463  -104.653
718.376     66.483  -106.856
728.825     66.506  -109.574
739.426     66.404  -112.410
750.181     66.261  -114.639
761.093     66.166  -116.717
772.163     66.118  -119.124
783.394     65.951  -122.136
794.789     65.657  -124.568
806.349     65.374  -125.863
818.078     65.140  -126.939
829.977     64.928  -127.395
842.050     64.921  -127.571
854.298     64.996  -128.632
866.724     65.049  -129.961
879.330     65.237  -131.535
892.120     65.342  -134.460
905.097     65.346  -137.690
918.262     65.263  -141.212
931.618     64.924  -144.373
945.169     64.608  -146.580
958.917     64.278  -148.174
972.864     63.960  -148.739
987.015     63.933  -149.546
1001.37     63.886  -151.209
1015.94     63.854  -152.820
1030.71     63.861  -155.659
1045.71     63.653  -158.866
1060.92     63.427  -161.800
1076.35     63.065  -164.542
1092.00     62.640  -166.335
1107.89     62.290  -166.664
1124.00     62.120  -166.638
1140.35     62.053  -167.921
1156.94     61.928  -168.298
1173.77     61.961  -168.714
1190.84     61.960  -170.070
1208.16     62.003  -170.290
1225.73     62.239  -171.705
1243.56     62.259  -174.219
1261.65     62.299  -175.532
1280.00     62.423  -178.058
1298.62     62.405   178.419
1317.51     62.320   175.350
1336.67     62.210   171.555
1356.11     61.882   167.239
1375.84     61.409   165.185
1395.85     60.885   163.905
1416.15     60.351   163.950
1436.75     60.115   165.223
1457.65     60.058   165.204
1478.85     60.052   163.931
1500.36     60.030   162.363
1522.19     59.823   159.617
1544.33     59.513   158.411
1566.79     59.174   158.065
1589.58     58.839   158.405
1612.70     58.838   160.145
1636.16     58.949   160.349
1659.95     59.180   159.806
1684.10     59.428   158.609
1708.60     59.568   155.527
1733.45     59.466   153.317
1758.66     59.199   151.796
1784.24     58.994   152.106
1810.19     58.960   154.140
1836.52     59.155   155.503
1863.24     59.475   156.370
1890.34     59.836   155.393
1917.83     60.235   152.954
1945.73     60.491   149.146
1974.03     60.685   144.377
2002.74     60.739   139.929
2031.87     60.677   136.111
2061.43     60.624   132.773
2091.41     60.459   129.329
2121.83     60.280   126.195
2152.69     60.113   123.537
2184.01     60.049   121.222
2215.77     60.074   120.248
2248.00     60.057   118.631
2280.70     60.022   116.398
2313.87     59.863   113.901
2347.53     59.521   109.997
2381.68     59.181   107.424
2416.32     58.882   106.305
2451.46     58.647   105.335
2487.12     58.506   105.455
2523.30     58.318   105.828
2560.00     57.967   105.513
2597.24     57.522   105.144
2635.01     57.060   105.277
2673.34     56.538   105.358
2712.23     56.150   105.349
2751.68     56.022   106.649
2791.70     56.274   108.739
2832.31     56.804   110.047
2873.50     57.445   111.096
2915.30     58.132   111.045
2957.70     58.666   108.964
3000.72     58.992   105.622
3044.37     59.155   101.394
3088.65     59.185    96.446
3133.58     58.987    91.176
3179.16     58.614    87.112
3225.40     58.312    83.988
3272.31     57.824    80.945
3319.91     57.223    79.695
3368.20     56.707    79.707
3417.19     55.970    80.065
3466.89     55.143    83.341
3517.32     54.694    88.408
3568.48     54.637    94.153
3620.39     54.933    98.943
3673.05     55.648   101.769
3726.47     56.504   100.734
3780.67     57.160    96.802
3835.67     57.645    90.385
3891.46     57.846    83.128
3948.06     57.937    76.247
4005.49     57.954    69.419
4063.75     57.887    62.494
4122.86     57.692    55.832
4182.82     57.280    49.084
4243.66     56.614    44.056
4305.39     55.725    40.009
4368.01     54.611    37.737
4431.55     53.404    36.525
4496.01     51.996    36.412
4561.40     50.393    39.303
4627.75     48.943    47.535
4695.06     47.917    58.514
4763.35     47.656    70.415
4832.64     48.213    79.983
4902.93     48.795    84.686
4974.24     48.978    87.057
5046.60     48.851    88.671
5120.00     48.514    90.491
5194.47     48.090    93.745
5270.03     47.606    98.179
5346.68     47.147   103.935
5424.45     46.885   114.723
5503.35     47.033   125.367
5583.40     47.679   132.467
5664.61     48.565   138.553
5747.01     49.609   138.625
5830.60     50.399   132.720
5915.41     50.603   126.736
6001.45     50.457   120.195
6088.74     49.929   114.935
6177.30     49.129   110.829
6267.15     47.989   108.506
6358.31     46.703   109.816
6450.80     45.370   113.141
6544.62     44.141   118.346
6639.82     43.356   122.058
6736.40     43.126   119.999
6834.38     42.883   115.435
6933.79     42.498   110.181
7034.64     42.252   105.019
7136.96     41.793   100.765
7240.77     40.728    89.729
7346.09     39.807    63.450
7452.94     39.727    17.361
7561.35     40.636   -40.559
7671.33     41.904  -100.744
7782.91     42.911  -152.300
7896.12     43.689   176.649
8010.97     44.146   163.402
8127.49     44.226   162.541
8245.71     44.660   166.338
8365.65     45.309   167.276
8487.33     46.033   163.464
8610.78     46.594   154.201
8736.03     46.657   141.965
8863.09     46.674   127.410
8992.01     46.580   111.021
9122.80     46.040    93.257
9255.50     45.552    72.392
9390.12     45.027    48.453
9526.70     44.454    23.017
9665.27     44.121    -1.292
9805.86     44.156   -23.864
9948.49     44.316   -43.247
10093.2     44.434   -58.118
10240.0     44.496   -71.124
10388.9     44.163   -80.805
10540.1     43.727   -86.871
10693.4     43.407   -93.059
10848.9     42.827   -96.713
11006.7     42.130   -98.756
11166.8     41.098   -94.966
11329.2     40.153   -85.855
11494.0     39.541   -75.141
11661.2     39.618   -62.395
11830.8     40.809   -55.620
12002.9     41.847   -56.039
12177.5     42.835   -59.109
12354.6     43.609   -69.374
12534.3     43.359   -80.890
12716.6     42.647   -91.088
12901.6     41.287   -99.880
13089.2     39.463   -97.728
13279.6     37.920   -86.126
13472.8     37.048   -70.910
13668.8     37.191   -51.814
13867.6     38.048   -35.318
14069.3     39.066   -27.340
14273.9     39.815   -24.295
14481.5     40.083   -23.416
14692.2     40.165   -21.673
14905.9     40.182   -18.544
15122.7     40.393   -13.525
15342.7     40.792    -7.858
15565.8     41.352    -2.378
15792.2     42.091     1.807
16021.9     42.573     4.501
16255.0     42.617     6.393
16491.4     42.498    11.410
16731.3     42.366    16.904
16974.7     42.413    21.938
17221.6     42.576    26.935
17472.1     42.700    26.942
17726.2     42.681    23.731
17984.0     41.930    21.688
18245.6     40.400    21.967
18511.0     38.294    31.066
18780.2     35.470    38.668
19053.4     33.099    35.059
19330.5     32.023    23.306
19611.7     32.874    -0.853
19897.0     34.973   -32.304
20186.4     36.863   -56.571
20480.0     38.391   -69.787
20777.9     39.572   -73.045
21080.1     40.431   -69.779
21386.7     41.028   -60.919
21697.8     41.724   -50.496
22013.4     42.605   -40.860
22333.6     43.275   -30.481
22658.4     43.877   -22.927
22988.0     44.119   -17.976
23322.4     43.709   -13.658
23661.6     42.494    -6.309
