Freq[Hz]     dBSPL  Phase[Deg]
5.00000    -14.628   -14.946
5.07273    -14.286   -15.032
5.14651    -13.917   -15.124
5.22137    -13.507   -15.225
5.29732    -13.081   -15.331
5.37437    -12.638   -15.441
5.45254    -12.194   -15.553
5.53185    -11.750   -15.667
5.61231    -11.307   -15.782
5.69394    -10.863   -15.898
5.77676    -10.419   -16.016
5.86079     -9.976   -16.135
5.94604     -9.532   -16.256
6.03252     -9.088   -16.378
6.12027     -8.645   -16.501
6.20929     -8.201   -16.627
6.29961     -7.757   -16.754
6.39124     -7.313   -16.882
6.48420     -6.869   -17.012
6.57851     -6.425   -17.144
6.67420     -5.982   -17.278
6.77128     -5.537   -17.413
6.86977     -5.093   -17.551
6.96969     -4.649   -17.690
7.07107     -4.205   -17.832
7.17392     -3.761   -17.976
7.27827     -3.316   -18.121
7.38413     -2.872   -18.269
7.49154     -2.428   -18.420
7.60050     -1.983   -18.572
7.71105     -1.538   -18.728
7.82321     -1.094   -18.885
7.93701     -0.649   -19.045
8.05245     -0.204   -19.208
8.16958      0.240   -19.373
8.28841      0.685   -19.541
8.40896      1.130   -19.711
8.53128      1.575   -19.884
8.65537      2.020   -20.060
8.78126      2.465   -20.239
8.90899      2.910   -20.420
9.03857      3.355   -20.604
9.17004      3.800   -20.791
9.30342      4.245   -20.981
9.43874      4.690   -21.173
9.57603      5.135   -21.368
9.71532      5.581   -21.567
9.85663      6.026   -21.768
10.0000      6.471   -21.972
10.1455      6.917   -22.179
10.2930      7.362   -22.388
10.4427      7.808   -22.601
10.5946      8.253   -22.818
10.7487      8.699   -23.037
10.9051      9.145   -23.260
11.0637      9.591   -23.485
11.2246     10.037   -23.715
11.3879     10.483   -23.948
11.5535     10.929   -24.184
11.7216     11.375   -24.424
11.8921     11.822   -24.668
12.0650     12.268   -24.916
12.2405     12.715   -25.168
12.4186     13.161   -25.423
12.5992     13.608   -25.683
12.7825     14.055   -25.947
12.9684     14.502   -26.214
13.1570     14.949   -26.486
13.3484     15.396   -26.762
13.5426     15.843   -27.043
13.7395     16.291   -27.328
13.9394     16.738   -27.617
14.1421     17.186   -27.910
14.3478     17.634   -28.209
14.5565     18.082   -28.511
14.7683     18.530   -28.819
14.9831     18.978   -29.131
15.2010     19.426   -29.448
15.4221     19.875   -29.771
15.6464     20.323   -30.098
15.8740     20.772   -30.431
16.1049     21.221   -30.769
16.3392     21.670   -31.112
16.5768     22.120   -31.461
16.8179     22.569   -31.816
17.0626     23.019   -32.177
17.3107     23.469   -32.543
17.5625     23.919   -32.915
17.8180     24.369   -33.294
18.0771     24.819   -33.678
18.3401     25.270   -34.069
18.6068     25.721   -34.466
18.8775     26.172   -34.870
19.1521     26.623   -35.280
19.4306     27.075   -35.698
19.7133     27.534   -36.108
20.0000     28.010   -36.493
20.2909     28.522   -36.873
20.5860     29.074   -37.316
20.8855     29.641   -38.016
21.1893     30.192   -39.049
21.4975     30.693   -40.235
21.8102     31.114   -41.330
22.1274     31.473   -42.114
22.4492     31.824   -42.438
22.7758     32.206   -42.360
23.1071     32.644   -42.163
23.4432     33.142   -42.128
23.7841     33.669   -42.366
24.1301     34.186   -42.891
24.4811     34.682   -43.640
24.8372     35.155   -44.531
25.1984     35.616   -45.475
25.5649     36.081   -46.370
25.9368     36.558   -47.213
26.3141     37.054   -48.019
26.6968     37.559   -48.862
27.0851     38.061   -49.808
27.4791     38.551   -50.829
27.8788     39.022   -51.902
28.2843     39.476   -53.001
28.6957     39.926   -54.055
29.1131     40.380   -55.060
29.5365     40.849   -56.051
29.9661     41.335   -57.044
30.4020     41.831   -58.094
30.8442     42.329   -59.222
31.2929     42.813   -60.413
31.7480     43.288   -61.655
32.2098     43.758   -62.919
32.6783     44.225   -64.158
33.1536     44.707   -65.399
33.6359     45.210   -66.702
34.1251     45.726   -67.996
34.6215     46.233   -69.450
35.1250     46.715   -71.028
35.6359     47.169   -72.452
36.1543     47.608   -73.871
36.6802     48.050   -75.342
37.2137     48.514   -76.741
37.7550     49.003   -78.203
38.3041     49.506   -79.778
38.8613     50.002   -81.408
39.4265     50.485   -82.991
40.0000     50.960   -84.539
40.5818     51.435   -86.118
41.1721     51.914   -87.761
41.7710     52.397   -89.466
42.3785     52.880   -91.233
42.9949     53.364   -93.056
43.6203     53.851   -94.881
44.2548     54.337   -96.743
44.8985     54.824   -98.651
45.5515     55.314  -100.577
46.2141     55.800  -102.573
46.8863     56.281  -104.630
47.5683     56.753  -106.704
48.2602     57.220  -108.822
48.9621     57.688  -110.998
49.6743     58.155  -113.218
50.3968     58.625  -115.516
51.1299     59.098  -117.882
51.8736     59.566  -120.288
52.6281     60.027  -122.710
53.3936     60.481  -125.124
54.1702     60.932  -127.592
54.9581     61.379  -130.172
55.7575     61.820  -132.827
56.5685     62.253  -135.586
57.3914     62.676  -138.413
58.2261     63.088  -141.234
59.0730     63.492  -144.069
59.9323     63.891  -146.940
60.8040     64.286  -149.843
61.6884     64.675  -152.808
62.5857     65.054  -155.804
63.4960     65.423  -158.864
64.4196     65.776  -161.999
65.3566     66.113  -165.181
66.3073     66.434  -168.414
67.2717     66.743  -171.648
68.2502     67.040  -174.847
69.2429     67.330  -178.030
70.2501     67.613   178.803
71.2719     67.887   175.601
72.3086     68.146   172.343
73.3603     68.389   169.060
74.4274     68.617   165.778
75.5099     68.831   162.526
76.6083     69.034   159.313
77.7226     69.228   156.123
78.8531     69.411   152.943
80.0000     69.573   149.771
81.1636     69.719   146.613
82.3442     69.852   143.518
83.5419     69.977   140.505
84.7570     70.099   137.527
85.9899     70.219   134.584
87.2406     70.333   131.677
88.5096     70.436   128.767
89.7970     70.529   125.874
91.1031     70.609   123.036
92.4282     70.680   120.239
93.7726     70.745   117.485
95.1366     70.802   114.782
96.5204     70.850   112.123
97.9243     70.892   109.515
99.3486     70.927   106.957
100.794     70.955   104.442
102.260     70.979   101.989
103.747     70.996    99.579
105.256     71.009    97.219
106.787     71.020    94.922
108.340     71.028    92.668
109.916     71.033    90.465
111.515     71.037    88.305
113.137     71.036    86.203
114.783     71.029    84.142
116.452     71.022    82.137
118.146     71.017    80.188
119.865     71.011    78.281
121.608     71.009    76.384
123.377     71.006    74.529
125.171     70.999    72.692
126.992     70.992    70.895
128.839     70.987    69.140
130.713     70.985    67.425
132.615     70.991    65.696
134.543     70.996    63.961
136.500     70.998    62.192
138.486     70.994    60.398
140.500     70.975    58.624
142.544     70.951    56.900
144.617     70.921    55.245
146.721     70.892    53.685
148.855     70.872    52.174
151.020     70.859    50.685
153.217     70.852    49.166
155.445     70.845    47.629
157.706     70.837    46.064
160.000     70.821    44.485
162.327     70.798    42.963
164.688     70.775    41.482
167.084     70.752    40.021
169.514     70.729    38.575
171.980     70.705    37.132
174.481     70.677    35.702
177.019     70.642    34.320
179.594     70.606    33.065
182.206     70.584    31.891
184.856     70.580    30.733
187.545     70.592    29.522
190.273     70.611    28.193
193.041     70.625    26.768
195.849     70.627    25.304
198.697     70.618    23.855
201.587     70.611    22.442
204.520     70.605    20.983
207.494     70.589    19.485
210.512     70.564    17.981
213.574     70.522    16.507
216.681     70.471    15.114
219.833     70.414    13.787
223.030     70.355    12.603
226.274     70.314    11.514
229.565     70.289    10.423
232.905     70.273     9.356
236.292     70.279     8.276
239.729     70.297     7.045
243.216     70.309     5.676
246.754     70.308     4.187
250.343     70.285     2.655
253.984     70.241     1.126
257.678     70.176    -0.282
261.426     70.106    -1.582
265.229     70.041    -2.712
269.087     70.000    -3.801
273.001     69.976    -4.967
276.972     69.949    -6.235
281.000     69.914    -7.536
285.088     69.869    -8.819
289.234     69.813   -10.049
293.441     69.761   -11.180
297.709     69.726   -12.272
302.040     69.697   -13.502
306.433     69.655   -14.752
310.890     69.602   -15.967
315.412     69.547   -17.139
320.000     69.497   -18.176
324.655     69.464   -19.223
329.377     69.452   -20.310
334.168     69.449   -21.520
339.028     69.447   -22.872
343.959     69.441   -24.385
348.962     69.413   -26.014
354.038     69.355   -27.685
359.188     69.274   -29.317
364.412     69.163   -30.826
369.713     69.057   -32.130
375.090     68.964   -33.371
380.546     68.866   -34.636
386.081     68.771   -35.793
391.697     68.676   -36.898
397.394     68.597   -38.038
403.175     68.533   -39.229
409.039     68.447   -40.580
414.989     68.346   -41.997
421.025     68.200   -43.207
427.149     68.047   -44.127
433.362     67.936   -44.777
439.665     67.874   -45.420
446.060     67.865   -46.361
452.548     67.847   -47.774
459.131     67.750   -49.295
465.809     67.631   -50.553
472.584     67.498   -51.828
479.458     67.307   -52.631
486.432     67.186   -52.935
493.507     67.131   -53.421
500.686     67.073   -53.896
507.968     67.109   -54.235
515.357     67.184   -55.256
522.853     67.226   -56.660
530.458     67.251   -58.007
538.174     67.251   -59.705
546.002     67.206   -61.266
553.943     67.226   -62.376
562.001     67.299   -64.259
570.175     67.321   -66.786
578.469     67.258   -69.705
586.883     67.017   -72.877
595.419     66.698   -75.131
604.080     66.343   -76.631
612.866     65.986   -77.007
621.780     65.876   -76.785
630.824     65.867   -77.325
640.000     65.815   -78.303
649.309     65.798   -79.606
658.753     65.712   -81.032
668.335     65.611   -82.181
678.056     65.522   -83.526
687.919     65.464   -84.732
697.925     65.416   -86.141
708.077     65.385   -87.862
718.376     65.377   -89.309
728.825     65.442   -91.494
739.426     65.394   -94.274
750.181     65.267   -96.535
761.093     65.186   -98.913
772.163     65.083  -101.827
783.394     64.790  -104.849
794.789     64.385  -106.794
806.349     64.036  -107.448
818.078     63.744  -107.852
829.977     63.509  -107.490
842.050     63.514  -107.172
854.298     63.583  -107.784
866.724     63.648  -108.573
879.330     63.888  -110.137
892.120     63.960  -112.941
905.097     63.939  -116.118
918.262     63.771  -119.721
931.618     63.275  -122.008
945.169     62.862  -123.224
958.917     62.428  -123.674
972.864     62.107  -122.750
987.015     62.166  -123.179
1001.37     62.077  -124.715
1015.94     62.018  -126.160
1030.71     61.861  -129.013
1045.71     61.359  -130.913
1060.92     60.881  -131.715
1076.35     60.408  -130.823
1092.00     60.120  -129.010
1107.89     60.220  -126.982
1124.00     60.620  -125.632
1140.35     61.078  -127.212
1156.94     61.342  -129.972
1173.77     61.463  -132.801
1190.84     61.416  -135.759
1208.16     61.433  -137.855
1225.73     61.471  -140.657
1243.56     61.347  -143.178
1261.65     61.340  -144.957
1280.00     61.343  -147.587
1298.62     61.194  -151.082
1317.51     60.916  -153.865
1336.67     60.579  -156.586
1356.11     59.999  -159.434
1375.84     59.373  -159.018
1395.85     58.870  -157.569
1416.15     58.512  -155.380
1436.75     58.594  -152.831
1457.65     58.759  -152.726
1478.85     58.760  -153.847
1500.36     58.767  -155.541
1522.19     58.474  -158.083
1544.33     58.151  -158.425
1566.79     57.896  -158.440
1589.58     57.638  -157.126
1612.70     57.829  -155.471
1636.16     57.965  -156.011
1659.95     58.256  -157.775
1684.10     58.427  -161.638
1708.60     58.134  -166.542
1733.45     57.686  -168.852
1758.66     57.101  -168.667
1784.24     56.616  -165.581
1810.19     56.704  -162.656
1836.52     57.032  -161.929
1863.24     57.371  -163.531
1890.34     57.539  -167.511
1917.83     57.557  -170.331
1945.73     57.321  -172.903
1974.03     57.106  -175.533
2002.74     56.989  -176.696
2031.87     56.826  -179.094
2061.43     56.550   176.084
2091.41     55.940   171.420
2121.83     55.091   167.008
2152.69     54.151   162.963
2184.01     53.461   159.353
2215.77     52.901   156.530
2248.00     52.191   151.817
2280.70     50.949   146.669
2313.87     48.840   143.175
2347.53     45.670   143.256
2381.68     42.200   155.844
2416.32     40.451  -177.549
2451.46     40.946  -156.702
2487.12     42.379  -144.840
2523.30     44.057  -137.246
2560.00     44.557  -131.281
2597.24     44.531  -123.407
2635.01     44.730  -113.603
2673.34     44.499  -100.023
2712.23     44.851   -82.491
2751.68     46.198   -71.699
2791.70     47.347   -67.247
2832.31     48.540   -65.794
2873.50     49.585   -64.653
2915.30     50.965   -66.612
2957.70     52.178   -71.722
3000.72     52.831   -74.525
3044.37     53.617   -77.052
3088.65     54.100   -81.445
3133.58     54.122   -82.278
3179.16     54.419   -82.930
3225.40     54.413   -84.105
3272.31     54.332   -82.731
3319.91     54.371   -81.205
3368.20     54.374   -79.665
3417.19     54.433   -77.016
3466.89     54.665   -74.645
3517.32     54.914   -73.773
3568.48     55.128   -74.540
3620.39     55.179   -76.059
3673.05     55.241   -79.077
3726.47     54.920   -82.863
3780.67     54.394   -85.112
3835.67     53.523   -86.218
3891.46     52.302   -83.643
3948.06     51.169   -76.524
4005.49     50.407   -66.035
4063.75     50.310   -54.808
4122.86     50.935   -46.340
4182.82     51.355   -40.216
4243.66     51.898   -34.539
4305.39     52.523   -29.791
4368.01     53.318   -24.829
4431.55     54.257   -20.597
4496.01     55.229   -18.161
4561.40     56.131   -17.925
4627.75     56.824   -19.271
4695.06     57.296   -21.928
4763.35     57.494   -25.567
4832.64     57.294   -29.024
4902.93     56.763   -32.107
4974.24     55.873   -33.489
5046.60     54.941   -33.122
5120.00     54.256   -31.861
5194.47     53.859   -31.677
5270.03     53.412   -33.055
5346.68     52.853   -33.917
5424.45     52.060   -34.078
5503.35     51.061   -31.073
5583.40     50.225   -26.932
5664.61     49.596   -26.321
5747.01     48.740   -25.959
5830.60     47.752   -29.322
5915.41     46.689   -24.442
6001.45     46.026   -12.687
6088.74     45.818    -2.904
6177.30     46.194    10.654
6267.15     46.710    19.023
6358.31     46.932    17.217
6450.80     46.811    13.430
6544.62     46.414     5.328
6639.82     45.875    -4.185
6736.40     45.237   -10.114
6834.38     44.378   -12.226
6933.79     43.395     2.173
7034.64     42.443    27.366
7136.96     41.593    53.589
7240.77     40.981    82.579
7346.09     40.760   103.534
7452.94     40.283   110.039
7561.35     39.826   115.642
7671.33     40.123   122.536
7782.91     40.955   130.656
7896.12     41.821   138.937
8010.97     42.877   150.717
8127.49     43.601   159.935
8245.71     43.773   166.308
8365.65     43.597   175.542
8487.33     43.776  -176.778
8610.78     44.468  -169.721
8736.03     45.445  -161.677
8863.09     46.728  -156.481
8992.01     47.757  -154.254
9122.80     48.056  -154.121
9255.50     47.811  -154.203
9390.12     46.980  -154.380
9526.70     45.673  -149.501
9665.27     44.325  -139.840
9805.86     42.932  -116.222
9948.49     41.573   -89.606
10093.2     40.317   -67.116
10240.0     38.914   -46.653
10388.9     37.941   -40.821
10540.1     37.206   -47.787
10693.4     36.886   -59.814
10848.9     37.370   -82.581
11006.7     37.568  -105.969
11166.8     37.897  -132.043
11329.2     38.261  -158.582
11494.0     38.639  -177.190
11661.2     39.469   171.510
11830.8     40.382   165.713
12002.9     41.384   163.913
12177.5     42.402   163.390
12354.6     43.193   160.424
12534.3     43.618   158.355
12716.6     43.749   156.532
12901.6     43.644   155.212
13089.2     43.134   155.729
13279.6     42.447   159.955
13472.8     41.910   166.804
13668.8     41.236   176.331
13867.6     41.047  -171.166
14069.3     41.310  -159.681
14273.9     41.296  -147.422
14481.5     41.679  -134.362
14692.2     41.804  -123.879
14905.9     41.587  -112.435
15122.7     41.445  -101.302
15342.7     41.143   -89.777
15565.8     40.975   -75.911
15792.2     40.780   -64.024
16021.9     40.271   -50.168
16255.0     39.594   -35.386
16491.4     38.405   -17.253
16731.3     36.987     5.512
16974.7     35.970    29.475
17221.6     35.680    52.311
17472.1     36.184    73.471
17726.2     36.828    89.882
17984.0     37.093   102.286
18245.6     36.913   117.835
18511.0     36.890   136.090
18780.2     36.566   145.630
19053.4     36.079   146.070
19330.5     35.298   130.372
19611.7     34.157    99.018
19897.0     32.268    64.284
20186.4     29.901    37.172
20480.0     28.584    20.339
20777.9     29.059    15.632
21080.1     30.101    20.058
21386.7     32.316    29.113
21697.8     33.985    34.516
22013.4     34.925    42.851
22333.6     35.469    56.433
22658.4     35.821    66.955
22988.0     36.234    76.169
23322.4     36.150    84.292
23661.6     35.886    89.008
