Freq[Hz]     dBSPL  Phase[Deg]
5.00000    -14.239   -16.913
5.07273    -13.896   -16.990
5.14651    -13.526   -17.072
5.22137    -13.115   -17.158
5.29732    -12.687   -17.248
5.37437    -12.242   -17.341
5.45254    -11.796   -17.436
5.53185    -11.351   -17.531
5.61231    -10.905   -17.629
5.69394    -10.460   -17.727
5.77676    -10.014   -17.827
5.86079     -9.568   -17.929
5.94604     -9.123   -18.032
6.03252     -8.677   -18.136
6.12027     -8.231   -18.243
6.20929     -7.786   -18.350
6.29961     -7.340   -18.459
6.39124     -6.894   -18.570
6.48420     -6.448   -18.683
6.57851     -6.003   -18.797
6.67420     -5.557   -18.913
6.77128     -5.111   -19.030
6.86977     -4.665   -19.150
6.96969     -4.219   -19.271
7.07107     -3.773   -19.394
7.17392     -3.327   -19.518
7.27827     -2.881   -19.645
7.38413     -2.435   -19.773
7.49154     -1.989   -19.904
7.60050     -1.543   -20.036
7.71105     -1.096   -20.170
7.82321     -0.650   -20.307
7.93701     -0.204   -20.445
8.05245      0.243   -20.585
8.16958      0.689   -20.728
8.28841      1.135   -20.872
8.40896      1.582   -21.019
8.53128      2.028   -21.168
8.65537      2.475   -21.319
8.78126      2.921   -21.473
8.90899      3.368   -21.628
9.03857      3.815   -21.786
9.17004      4.262   -21.947
9.30342      4.708   -22.110
9.43874      5.155   -22.275
9.57603      5.602   -22.443
9.71532      6.049   -22.613
9.85663      6.496   -22.786
10.0000      6.943   -22.962
10.1455      7.390   -23.140
10.2930      7.838   -23.321
10.4427      8.285   -23.505
10.5946      8.732   -23.691
10.7487      9.180   -23.881
10.9051      9.627   -24.073
11.0637     10.075   -24.268
11.2246     10.523   -24.466
11.3879     10.971   -24.668
11.5535     11.418   -24.872
11.7216     11.866   -25.079
11.8921     12.314   -25.290
12.0650     12.763   -25.504
12.2405     13.211   -25.721
12.4186     13.659   -25.942
12.5992     14.108   -26.166
12.7825     14.556   -26.393
12.9684     15.005   -26.625
13.1570     15.453   -26.859
13.3484     15.902   -27.098
13.5426     16.351   -27.340
13.7395     16.800   -27.586
13.9394     17.250   -27.835
14.1421     17.699   -28.089
14.3478     18.149   -28.347
14.5565     18.598   -28.609
14.7683     19.048   -28.875
14.9831     19.498   -29.145
15.2010     19.948   -29.420
15.4221     20.398   -29.699
15.6464     20.848   -29.983
15.8740     21.299   -30.271
16.1049     21.750   -30.563
16.3392     22.200   -30.861
16.5768     22.651   -31.163
16.8179     23.103   -31.471
17.0626     23.554   -31.783
17.3107     24.006   -32.101
17.5625     24.457   -32.424
17.8180     24.909   -32.752
18.0771     25.361   -33.085
18.3401     25.814   -33.425
18.6068     26.266   -33.769
18.8775     26.719   -34.120
19.1521     27.172   -34.477
19.4306     27.625   -34.839
19.7133     28.086   -35.196
20.0000     28.562   -35.528
20.2909     29.069   -35.859
20.5860     29.612   -36.255
20.8855     30.164   -36.900
21.1893     30.698   -37.860
21.4975     31.186   -38.945
21.8102     31.603   -39.913
22.1274     31.967   -40.562
22.4492     32.329   -40.784
22.7758     32.726   -40.658
23.1071     33.175   -40.459
23.4432     33.676   -40.451
23.7841     34.202   -40.709
24.1301     34.717   -41.208
24.4811     35.213   -41.889
24.8372     35.686   -42.690
25.1984     36.149   -43.544
25.5649     36.615   -44.376
25.9368     37.093   -45.184
26.3141     37.589   -45.976
26.6968     38.090   -46.807
27.0851     38.587   -47.727
27.4791     39.074   -48.701
27.8788     39.544   -49.705
28.2843     40.000   -50.719
28.6957     40.453   -51.688
29.1131     40.911   -52.617
29.5365     41.383   -53.543
29.9661     41.870   -54.485
30.4020     42.366   -55.488
30.8442     42.864   -56.570
31.2929     43.351   -57.706
31.7480     43.830   -58.890
32.2098     44.302   -60.092
32.6783     44.772   -61.266
33.1536     45.256   -62.462
33.6359     45.755   -63.747
34.1251     46.266   -65.047
34.6215     46.762   -66.482
35.1250     47.229   -67.978
35.6359     47.677   -69.269
36.1543     48.117   -70.490
36.6802     48.568   -71.737
37.2137     49.047   -72.971
37.7550     49.552   -74.335
38.3041     50.066   -75.867
38.8613     50.569   -77.484
39.4265     51.058   -79.062
40.0000     51.537   -80.590
40.5818     52.015   -82.129
41.1721     52.495   -83.725
41.7710     52.978   -85.376
42.3785     53.461   -87.079
42.9949     53.945   -88.830
43.6203     54.434   -90.588
44.2548     54.921   -92.379
44.8985     55.409   -94.218
45.5515     55.899   -96.082
46.2141     56.385   -98.012
46.8863     56.865   -99.994
47.5683     57.337  -101.986
48.2602     57.805  -104.018
48.9621     58.275  -106.107
49.6743     58.745  -108.248
50.3968     59.216  -110.472
51.1299     59.689  -112.766
51.8736     60.156  -115.099
52.6281     60.616  -117.441
53.3936     61.070  -119.772
54.1702     61.520  -122.150
54.9581     61.965  -124.623
55.7575     62.404  -127.171
56.5685     62.837  -129.815
57.3914     63.262  -132.523
58.2261     63.679  -135.233
59.0730     64.088  -137.965
59.9323     64.490  -140.736
60.8040     64.886  -143.548
61.6884     65.275  -146.420
62.5857     65.656  -149.326
63.4960     66.025  -152.285
64.4196     66.378  -155.303
65.3566     66.715  -158.350
66.3073     67.038  -161.434
67.2717     67.351  -164.523
68.2502     67.658  -167.587
69.2429     67.959  -170.662
70.2501     68.252  -173.763
71.2719     68.530  -176.918
72.3086     68.788   179.874
73.3603     69.026   176.660
74.4274     69.248   173.472
75.5099     69.458   170.337
76.6083     69.659   167.256
77.7226     69.853   164.202
78.8531     70.036   161.163
80.0000     70.203   158.141
81.1636     70.354   155.133
82.3442     70.495   152.163
83.5419     70.626   149.238
84.7570     70.749   146.334
85.9899     70.864   143.467
87.2406     70.968   140.657
88.5096     71.061   137.892
89.7970     71.145   135.178
91.1031     71.221   132.527
92.4282     71.291   129.928
93.7726     71.357   127.372
95.1366     71.416   124.858
96.5204     71.468   122.384
97.9243     71.514   119.956
99.3486     71.551   117.574
100.794     71.581   115.245
102.260     71.607   112.974
103.747     71.627   110.767
105.256     71.642   108.623
106.787     71.658   106.536
108.340     71.674   104.480
109.916     71.689   102.466
111.515     71.702   100.480
113.137     71.711    98.541
114.783     71.716    96.644
116.452     71.718    94.780
118.146     71.717    92.937
119.865     71.712    91.143
121.608     71.701    89.371
123.377     71.685    87.668
125.171     71.665    86.059
126.992     71.649    84.522
128.839     71.638    83.027
130.713     71.634    81.581
132.615     71.635    80.115
134.543     71.636    78.674
136.500     71.639    77.232
138.486     71.638    75.775
140.500     71.631    74.353
142.544     71.622    72.949
144.617     71.610    71.579
146.721     71.599    70.262
148.855     71.589    68.957
151.020     71.582    67.686
153.217     71.574    66.419
155.445     71.565    65.173
157.706     71.556    63.949
160.000     71.544    62.734
162.327     71.531    61.584
164.688     71.521    60.474
167.084     71.512    59.386
169.514     71.508    58.345
171.980     71.512    57.306
174.481     71.522    56.230
177.019     71.531    55.118
179.594     71.538    53.995
182.206     71.539    52.855
184.856     71.534    51.722
187.545     71.524    50.615
190.273     71.510    49.544
193.041     71.493    48.524
195.849     71.477    47.555
198.697     71.462    46.637
201.587     71.456    45.747
204.520     71.450    44.832
207.494     71.438    43.949
210.512     71.428    43.130
213.574     71.423    42.406
216.681     71.438    41.731
219.833     71.477    41.004
223.030     71.529    40.103
226.274     71.569    38.971
229.565     71.578    37.739
232.905     71.554    36.563
236.292     71.512    35.548
239.729     71.469    34.747
243.216     71.445    34.078
246.754     71.440    33.420
250.343     71.442    32.716
253.984     71.442    32.001
257.678     71.449    31.330
261.426     71.464    30.633
265.229     71.488    29.906
269.087     71.517    29.100
273.001     71.538    28.125
276.972     71.524    27.167
281.000     71.499    26.375
285.088     71.479    25.710
289.234     71.478    25.171
293.441     71.506    24.564
297.709     71.543    23.794
302.040     71.570    22.893
306.433     71.575    21.936
310.890     71.557    21.068
315.412     71.534    20.375
320.000     71.529    19.836
324.655     71.552    19.254
329.377     71.584    18.563
334.168     71.622    17.788
339.028     71.652    16.861
343.959     71.655    15.929
348.962     71.654    15.108
354.038     71.666    14.276
359.188     71.661    13.342
364.412     71.652    12.528
369.713     71.657    11.614
375.090     71.629    10.594
380.546     71.581     9.801
386.081     71.547     9.095
391.697     71.512     8.464
397.394     71.482     7.861
403.175     71.441     7.274
409.039     71.412     6.966
414.989     71.420     6.608
421.025     71.454     6.214
427.149     71.507     5.657
433.362     71.562     4.827
439.665     71.576     3.772
446.060     71.537     2.668
452.548     71.464     1.843
459.131     71.376     1.273
465.809     71.295     1.013
472.584     71.267     1.106
479.458     71.290     1.136
486.432     71.352     1.045
493.507     71.431     0.787
500.686     71.533     0.338
507.968     71.636    -0.391
515.357     71.702    -1.403
522.853     71.731    -2.239
530.458     71.774    -3.069
538.174     71.796    -3.891
546.002     71.838    -4.639
553.943     71.876    -5.585
562.001     71.891    -6.560
570.175     71.919    -7.450
578.469     71.910    -8.537
586.883     71.881    -9.348
595.419     71.889    -9.931
604.080     71.895   -10.704
612.866     71.898   -11.650
621.780     71.881   -12.394
630.824     71.872   -13.041
640.000     71.876   -13.685
649.309     71.907   -14.168
658.753     71.973   -14.989
668.335     71.986   -16.158
678.056     71.984   -17.303
687.919     71.927   -18.435
697.925     71.820   -18.924
708.077     71.826   -18.752
718.376     71.964   -18.906
728.825     72.096   -20.191
739.426     72.069   -21.721
750.181     72.017   -22.344
761.093     72.017   -22.942
772.163     72.063   -23.386
783.394     72.157   -24.190
794.789     72.197   -25.518
806.349     72.189   -26.737
818.078     72.173   -27.950
829.977     72.097   -29.088
842.050     72.045   -29.646
854.298     72.050   -30.128
866.724     72.075   -30.596
879.330     72.146   -31.131
892.120     72.240   -32.076
905.097     72.325   -33.261
918.262     72.375   -34.685
931.618     72.354   -36.153
945.169     72.344   -37.188
958.917     72.332   -38.081
972.864     72.356   -38.907
987.015     72.420   -39.863
1001.37     72.472   -41.082
1015.94     72.513   -42.390
1030.71     72.538   -43.838
1045.71     72.525   -45.173
1060.92     72.525   -46.320
1076.35     72.518   -47.445
1092.00     72.496   -48.568
1107.89     72.487   -49.318
1124.00     72.576   -50.060
1140.35     72.691   -51.932
1156.94     72.625   -53.400
1173.77     72.639   -54.038
1190.84     72.725   -55.230
1208.16     72.745   -56.535
1225.73     72.778   -58.022
1243.56     72.772   -59.645
1261.65     72.706   -60.843
1280.00     72.735   -61.725
1298.62     72.806   -62.874
1317.51     72.885   -64.139
1336.67     72.991   -65.717
1356.11     73.024   -67.674
1375.84     73.012   -69.396
1395.85     72.982   -71.067
1416.15     72.906   -72.612
1436.75     72.873   -73.816
1457.65     72.824   -75.278
1478.85     72.795   -76.362
1500.36     72.784   -77.493
1522.19     72.764   -78.733
1544.33     72.800   -79.563
1566.79     72.836   -80.803
1589.58     72.875   -82.047
1612.70     72.937   -83.215
1636.16     72.953   -84.727
1659.95     73.021   -86.183
1684.10     73.052   -87.749
1708.60     73.073   -89.550
1733.45     73.088   -91.333
1758.66     73.050   -92.920
1784.24     72.967   -94.349
1810.19     72.891   -95.386
1836.52     72.798   -95.916
1863.24     72.750   -96.086
1890.34     72.771   -96.143
1917.83     72.912   -96.432
1945.73     73.109   -97.116
1974.03     73.334   -98.272
2002.74     73.535  -100.140
2031.87     73.646  -102.465
2061.43     73.657  -104.779
2091.41     73.651  -107.067
2121.83     73.582  -109.388
2152.69     73.499  -111.091
2184.01     73.424  -112.213
2215.77     73.360  -113.156
2248.00     73.298  -113.905
2280.70     73.269  -114.676
2313.87     73.295  -115.710
2347.53     73.326  -117.014
2381.68     73.345  -118.319
2416.32     73.350  -119.560
2451.46     73.326  -120.656
2487.12     73.288  -121.508
2523.30     73.229  -122.063
2560.00     73.203  -122.391
2597.24     73.232  -122.738
2635.01     73.263  -123.086
2673.34     73.325  -123.810
2712.23     73.374  -124.988
2751.68     73.358  -126.219
2791.70     73.282  -127.556
2832.31     73.143  -128.585
2873.50     72.975  -129.071
2915.30     72.826  -129.105
2957.70     72.727  -128.753
3000.72     72.695  -128.249
3044.37     72.731  -127.908
3088.65     72.789  -128.112
3133.58     72.799  -128.772
3179.16     72.753  -129.520
3225.40     72.639  -130.105
3272.31     72.487  -130.033
3319.91     72.382  -129.316
3368.20     72.370  -128.220
3417.19     72.491  -127.451
3466.89     72.661  -127.490
3517.32     72.786  -128.322
3568.48     72.810  -129.644
3620.39     72.703  -130.876
3673.05     72.504  -131.522
3726.47     72.309  -131.595
3780.67     72.162  -131.391
3835.67     72.054  -131.319
3891.46     71.954  -131.635
3948.06     71.789  -132.229
4005.49     71.539  -132.736
4063.75     71.259  -132.975
4122.86     70.954  -132.985
4182.82     70.648  -132.778
4243.66     70.345  -132.577
4305.39     69.970  -132.419
4368.01     69.497  -131.931
4431.55     68.962  -131.003
4496.01     68.374  -129.721
4561.40     67.735  -128.095
4627.75     67.031  -126.302
4695.06     66.180  -123.940
4763.35     65.134  -120.501
4832.64     63.838  -114.808
4902.93     62.352  -104.281
4974.24     61.317   -85.794
5046.60     62.083   -63.681
5120.00     64.232   -50.217
5194.47     66.262   -45.662
5270.03     67.731   -45.198
5346.68     68.746   -46.082
5424.45     69.462   -47.212
5503.35     69.963   -48.378
5583.40     70.299   -49.536
5664.61     70.474   -50.608
5747.01     70.508   -51.445
5830.60     70.426   -51.812
5915.41     70.238   -51.537
6001.45     70.001   -50.352
6088.74     69.763   -48.577
6177.30     69.507   -46.638
6267.15     69.170   -44.372
6358.31     68.763   -41.363
6450.80     68.350   -37.485
6544.62     67.977   -32.790
6639.82     67.662   -27.275
6736.40     67.450   -20.840
6834.38     67.417   -14.024
6933.79     67.526    -7.397
7034.64     67.705    -0.966
7136.96     68.005     5.058
7240.77     68.337    10.199
7346.09     68.631    14.979
7452.94     68.970    19.494
7561.35     69.262    23.414
7671.33     69.493    27.395
7782.91     69.757    31.096
7896.12     69.928    34.250
8010.97     70.028    37.624
8127.49     70.126    41.003
8245.71     70.165    44.493
8365.65     70.197    48.406
8487.33     70.245    52.415
8610.78     70.273    56.552
8736.03     70.284    60.669
8863.09     70.255    64.809
8992.01     70.154    69.069
9122.80     69.983    73.804
9255.50     69.820    79.298
9390.12     69.706    85.318
9526.70     69.675    91.728
9665.27     69.726    98.298
9805.86     69.839   104.825
9948.49     70.017   111.232
10093.2     70.244   117.099
10240.0     70.453   122.254
10388.9     70.583   126.859
10540.1     70.590   131.375
10693.4     70.471   136.414
10848.9     70.296   142.408
11006.7     70.141   149.272
11166.8     70.056   156.899
11329.2     70.121   164.750
11494.0     70.296   172.303
11661.2     70.539   179.338
11830.8     70.806  -174.228
12002.9     71.047  -168.417
12177.5     71.227  -163.188
12354.6     71.282  -158.476
12534.3     71.156  -153.671
12716.6     70.868  -148.220
12901.6     70.514  -141.422
13089.2     70.231  -133.802
13279.6     70.003  -125.667
13472.8     69.841  -117.352
13668.8     69.716  -108.998
13867.6     69.583  -100.553
14069.3     69.467   -91.892
14273.9     69.350   -83.090
14481.5     69.234   -74.051
14692.2     69.132   -64.855
14905.9     69.017   -55.374
15122.7     68.911   -45.724
15342.7     68.819   -35.670
15565.8     68.763   -25.370
15792.2     68.762   -14.915
16021.9     68.804    -4.428
16255.0     68.874     6.015
16491.4     68.927    16.415
16731.3     68.968    27.146
16974.7     69.009    38.351
17221.6     69.094    50.072
17472.1     69.250    62.225
17726.2     69.492    74.405
17984.0     69.801    86.209
18245.6     70.115    97.473
18511.0     70.389   108.124
18780.2     70.602   118.480
19053.4     70.744   128.777
19330.5     70.842   139.251
19611.7     70.917   150.031
19897.0     70.986   161.048
20186.4     71.063   172.422
20480.0     71.132  -175.739
20777.9     71.212  -163.489
21080.1     71.342  -150.732
21386.7     71.519  -137.661
21697.8     71.776  -124.576
22013.4     72.087  -111.837
22333.6     72.393   -99.788
22658.4     72.628   -88.445
22988.0     72.651   -77.836
23322.4     72.282   -67.336
23661.6     71.327   -53.704
