Freq[Hz]     dBSPL  Phase[Deg]
5.00000    -14.748   -15.667
5.07273    -14.405   -15.750
5.14651    -14.034   -15.839
5.22137    -13.622   -15.936
5.29732    -13.195   -16.037
5.37437    -12.749   -16.142
5.45254    -12.303   -16.249
5.53185    -11.857   -16.358
5.61231    -11.411   -16.468
5.69394    -10.965   -16.580
5.77676    -10.519   -16.693
5.86079    -10.073   -16.808
5.94604     -9.627   -16.924
6.03252     -9.181   -17.042
6.12027     -8.735   -17.162
6.20929     -8.289   -17.283
6.29961     -7.843   -17.406
6.39124     -7.396   -17.531
6.48420     -6.950   -17.657
6.57851     -6.504   -17.785
6.67420     -6.058   -17.915
6.77128     -5.612   -18.047
6.86977     -5.165   -18.181
6.96969     -4.719   -18.316
7.07107     -4.272   -18.454
7.17392     -3.826   -18.594
7.27827     -3.379   -18.736
7.38413     -2.933   -18.879
7.49154     -2.486   -19.025
7.60050     -2.040   -19.174
7.71105     -1.593   -19.324
7.82321     -1.146   -19.477
7.93701     -0.699   -19.632
8.05245     -0.253   -19.790
8.16958      0.194   -19.950
8.28841      0.641   -20.112
8.40896      1.088   -20.277
8.53128      1.535   -20.445
8.65537      1.982   -20.615
8.78126      2.430   -20.788
8.90899      2.877   -20.963
9.03857      3.324   -21.141
9.17004      3.771   -21.322
9.30342      4.218   -21.505
9.43874      4.666   -21.692
9.57603      5.113   -21.880
9.71532      5.561   -22.072
9.85663      6.008   -22.267
10.0000      6.456   -22.464
10.1455      6.903   -22.665
10.2930      7.351   -22.868
10.4427      7.799   -23.074
10.5946      8.246   -23.284
10.7487      8.694   -23.496
10.9051      9.142   -23.712
11.0637      9.590   -23.931
11.2246     10.039   -24.154
11.3879     10.487   -24.379
11.5535     10.935   -24.609
11.7216     11.384   -24.841
11.8921     11.832   -25.078
12.0650     12.281   -25.318
12.2405     12.730   -25.562
12.4186     13.178   -25.809
12.5992     13.627   -26.061
12.7825     14.076   -26.316
12.9684     14.525   -26.575
13.1570     14.975   -26.839
13.3484     15.424   -27.107
13.5426     15.874   -27.378
13.7395     16.323   -27.654
13.9394     16.773   -27.934
14.1421     17.223   -28.219
14.3478     17.673   -28.508
14.5565     18.123   -28.801
14.7683     18.573   -29.100
14.9831     19.023   -29.402
15.2010     19.474   -29.710
15.4221     19.924   -30.022
15.6464     20.375   -30.340
15.8740     20.826   -30.662
16.1049     21.277   -30.990
16.3392     21.729   -31.323
16.5768     22.180   -31.662
16.8179     22.632   -32.005
17.0626     23.084   -32.355
17.3107     23.536   -32.710
17.5625     23.988   -33.071
17.8180     24.440   -33.438
18.0771     24.893   -33.811
18.3401     25.346   -34.190
18.6068     25.799   -34.576
18.8775     26.252   -34.967
19.1521     26.706   -35.366
19.4306     27.159   -35.770
19.7133     27.621   -36.167
20.0000     28.098   -36.538
20.2909     28.610   -36.898
20.5860     29.160   -37.312
20.8855     29.722   -37.971
21.1893     30.267   -38.949
21.4975     30.765   -40.072
21.8102     31.189   -41.107
22.1274     31.557   -41.844
22.4492     31.919   -42.150
22.7758     32.312   -42.088
23.1071     32.755   -41.928
23.4432     33.251   -41.937
23.7841     33.773   -42.202
24.1301     34.287   -42.722
24.4811     34.783   -43.439
24.8372     35.257   -44.290
25.1984     35.720   -45.197
25.5649     36.186   -46.076
25.9368     36.664   -46.923
26.3141     37.160   -47.741
26.6968     37.663   -48.593
27.0851     38.162   -49.538
27.4791     38.651   -50.543
27.8788     39.121   -51.589
28.2843     39.577   -52.655
28.6957     40.029   -53.676
29.1131     40.487   -54.655
29.5365     40.959   -55.630
29.9661     41.448   -56.618
30.4020     41.946   -57.673
30.8442     42.445   -58.810
31.2929     42.931   -60.004
31.7480     43.407   -61.245
32.2098     43.877   -62.502
32.6783     44.347   -63.725
33.1536     44.831   -64.965
33.6359     45.333   -66.291
34.1251     45.848   -67.629
34.6215     46.348   -69.125
35.1250     46.819   -70.714
35.6359     47.263   -72.107
36.1543     47.696   -73.447
36.6802     48.138   -74.814
37.2137     48.606   -76.131
37.7550     49.103   -77.548
38.3041     49.613   -79.113
38.8613     50.113   -80.758
39.4265     50.598   -82.364
40.0000     51.072   -83.924
40.5818     51.545   -85.502
41.1721     52.021   -87.137
41.7710     52.499   -88.822
42.3785     52.978   -90.550
42.9949     53.461   -92.321
43.6203     53.951   -94.096
44.2548     54.442   -95.916
44.8985     54.935   -97.802
45.5515     55.429   -99.727
46.2141     55.918  -101.733
46.8863     56.399  -103.796
47.5683     56.870  -105.869
48.2602     57.336  -107.980
48.9621     57.804  -110.143
49.6743     58.271  -112.353
50.3968     58.740  -114.643
51.1299     59.211  -116.997
51.8736     59.676  -119.392
52.6281     60.135  -121.800
53.3936     60.587  -124.193
54.1702     61.035  -126.629
54.9581     61.480  -129.166
55.7575     61.921  -131.778
56.5685     62.355  -134.494
57.3914     62.781  -137.286
58.2261     63.196  -140.083
59.0730     63.603  -142.901
59.9323     64.004  -145.756
60.8040     64.400  -148.645
61.6884     64.789  -151.596
62.5857     65.170  -154.581
63.4960     65.540  -157.630
64.4196     65.892  -160.756
65.3566     66.228  -163.924
66.3073     66.548  -167.137
67.2717     66.854  -170.349
68.2502     67.150  -173.517
69.2429     67.440  -176.667
70.2501     67.725  -179.809
71.2719     68.001   177.006
72.3086     68.261   173.760
73.3603     68.504   170.490
74.4274     68.730   167.221
75.5099     68.944   163.986
76.6083     69.145   160.794
77.7226     69.338   157.625
78.8531     69.520   154.471
80.0000     69.682   151.331
81.1636     69.826   148.214
82.3442     69.960   145.164
83.5419     70.088   142.185
84.7570     70.212   139.229
85.9899     70.334   136.298
87.2406     70.449   133.393
88.5096     70.551   130.488
89.7970     70.642   127.608
91.1031     70.720   124.789
92.4282     70.789   122.017
93.7726     70.852   119.292
95.1366     70.907   116.618
96.5204     70.955   113.988
97.9243     70.996   111.412
99.3486     71.030   108.888
100.794     71.057   106.408
102.260     71.081   103.988
103.747     71.099   101.613
105.256     71.112    99.286
106.787     71.124    97.011
108.340     71.133    94.770
109.916     71.139    92.572
111.515     71.142    90.404
113.137     71.136    88.293
114.783     71.123    86.235
116.452     71.107    84.249
118.146     71.091    82.340
119.865     71.077    80.498
121.608     71.068    78.676
123.377     71.061    76.897
125.171     71.050    75.134
126.992     71.041    73.401
128.839     71.032    71.708
130.713     71.026    70.072
132.615     71.028    68.437
134.543     71.032    66.821
136.500     71.041    65.175
138.486     71.047    63.470
140.500     71.042    61.750
142.544     71.029    60.032
144.617     71.005    58.351
146.721     70.977    56.766
148.855     70.953    55.237
151.020     70.936    53.751
153.217     70.924    52.250
155.445     70.912    50.723
157.706     70.897    49.164
160.000     70.870    47.594
162.327     70.834    46.092
164.688     70.794    44.660
167.084     70.754    43.282
169.514     70.716    41.951
171.980     70.679    40.657
174.481     70.643    39.401
177.019     70.608    38.195
179.594     70.580    37.080
182.206     70.567    36.000
184.856     70.569    34.899
187.545     70.583    33.721
190.273     70.597    32.427
193.041     70.602    31.060
195.849     70.595    29.666
198.697     70.575    28.301
201.587     70.556    26.986
204.520     70.535    25.645
207.494     70.504    24.308
210.512     70.468    23.011
213.574     70.421    21.762
216.681     70.369    20.597
219.833     70.316    19.532
223.030     70.274    18.593
226.274     70.258    17.685
229.565     70.258    16.699
232.905     70.264    15.668
236.292     70.286    14.565
239.729     70.306    13.269
243.216     70.305    11.858
246.754     70.283    10.427
250.343     70.243     9.017
253.984     70.184     7.647
257.678     70.107     6.470
261.426     70.042     5.441
265.229     69.997     4.480
269.087     69.967     3.470
273.001     69.951     2.350
276.972     69.920     1.114
281.000     69.871    -0.082
285.088     69.820    -1.176
289.234     69.772    -2.195
293.441     69.744    -3.220
297.709     69.724    -4.359
302.040     69.690    -5.654
306.433     69.626    -6.994
310.890     69.526    -8.119
315.412     69.433    -9.004
320.000     69.369    -9.727
324.655     69.343   -10.444
329.377     69.350   -11.358
334.168     69.365   -12.537
339.028     69.358   -13.940
343.959     69.312   -15.547
348.962     69.216   -17.028
354.038     69.097   -18.324
359.188     68.968   -19.458
364.412     68.835   -20.325
369.713     68.747   -20.986
375.090     68.703   -21.794
380.546     68.647   -22.827
386.081     68.585   -23.897
391.697     68.510   -24.966
397.394     68.425   -26.202
403.175     68.317   -27.495
409.039     68.156   -28.614
414.989     67.991   -29.587
421.025     67.794   -30.167
427.149     67.623   -30.262
433.362     67.540   -30.251
439.665     67.512   -30.433
446.060     67.535   -30.997
452.548     67.538   -32.265
459.131     67.427   -33.617
465.809     67.276   -34.596
472.584     67.075   -35.341
479.458     66.868   -35.074
486.432     66.808   -34.313
493.507     66.867   -34.053
500.686     66.961   -34.131
507.968     67.105   -34.891
515.357     67.184   -36.552
522.853     67.135   -38.395
530.458     67.047   -39.869
538.174     66.902   -41.217
546.002     66.749   -41.940
553.943     66.707   -42.532
562.001     66.634   -43.870
570.175     66.472   -44.876
578.469     66.309   -45.871
586.883     66.025   -46.605
595.419     65.760   -46.318
604.080     65.605   -45.677
612.866     65.585   -44.631
621.780     65.742   -44.338
630.824     65.896   -45.121
640.000     65.974   -46.161
649.309     66.000   -47.632
658.753     65.950   -49.099
668.335     65.865   -50.536
678.056     65.705   -51.618
687.919     65.554   -52.660
697.925     65.340   -53.518
708.077     65.096   -53.450
718.376     65.015   -52.843
728.825     65.078   -53.422
739.426     64.960   -54.691
750.181     64.755   -54.923
761.093     64.641   -54.896
772.163     64.492   -55.170
783.394     64.310   -54.463
794.789     64.287   -53.580
806.349     64.339   -52.886
818.078     64.495   -51.987
829.977     64.744   -52.096
842.050     64.909   -52.986
854.298     64.997   -53.513
866.724     65.108   -54.670
879.330     65.175   -56.329
892.120     65.133   -57.426
905.097     65.133   -58.308
918.262     65.191   -59.016
931.618     65.258   -59.451
945.169     65.371   -60.163
958.917     65.485   -60.876
972.864     65.666   -61.886
987.015     65.824   -63.412
1001.37     65.965   -64.749
1015.94     66.172   -66.383
1030.71     66.340   -68.450
1045.71     66.411   -70.967
1060.92     66.432   -73.327
1076.35     66.447   -75.488
1092.00     66.389   -77.493
1107.89     66.418   -79.043
1124.00     66.566   -80.960
1140.35     66.591   -84.112
1156.94     66.436   -87.471
1173.77     66.191   -89.735
1190.84     65.992   -90.884
1208.16     65.955   -92.452
1225.73     65.870   -93.695
1243.56     65.921   -94.961
1261.65     65.991   -97.340
1280.00     65.976   -99.497
1298.62     65.979  -102.072
1317.51     65.865  -104.534
1336.67     65.765  -105.893
1356.11     65.780  -107.654
1375.84     65.784  -109.838
1395.85     65.793  -112.138
1416.15     65.750  -115.323
1436.75     65.588  -118.172
1457.65     65.397  -120.438
1478.85     65.237  -122.329
1500.36     65.206  -124.166
1522.19     65.161  -126.405
1544.33     65.089  -129.036
1566.79     64.981  -131.158
1589.58     64.846  -133.042
1612.70     64.775  -134.647
1636.16     64.877  -136.362
1659.95     65.010  -139.073
1684.10     65.119  -142.971
1708.60     65.110  -146.907
1733.45     64.998  -150.890
1758.66     64.794  -154.467
1784.24     64.543  -157.705
1810.19     64.286  -160.890
1836.52     64.037  -163.722
1863.24     63.808  -166.464
1890.34     63.606  -169.489
1917.83     63.373  -171.805
1945.73     63.148  -173.698
1974.03     62.990  -175.378
2002.74     62.907  -176.505
2031.87     62.969  -178.200
2061.43     63.128   179.538
2091.41     63.367   176.476
2121.83     63.519   171.737
2152.69     63.519   166.754
2184.01     63.369   162.157
2215.77     63.167   158.022
2248.00     62.976   154.468
2280.70     62.759   150.833
2313.87     62.497   147.692
2347.53     62.362   145.132
2381.68     62.295   142.155
2416.32     62.230   139.358
2451.46     62.206   136.835
2487.12     62.260   134.279
2523.30     62.331   131.126
2560.00     62.302   127.357
2597.24     62.251   124.014
2635.01     62.266   120.443
2673.34     62.169   116.106
2712.23     61.958   112.846
2751.68     61.835   110.005
2791.70     61.697   107.180
2832.31     61.566   104.580
2873.50     61.501   101.862
2915.30     61.528    99.075
2957.70     61.564    95.717
3000.72     61.556    92.853
3044.37     61.686    90.612
3088.65     61.840    87.568
3133.58     61.911    84.580
3179.16     62.130    81.337
3225.40     62.308    76.688
3272.31     62.357    72.016
3319.91     62.426    67.116
3368.20     62.329    62.100
3417.19     62.129    58.474
3466.89     61.948    55.398
3517.32     61.773    53.265
3568.48     61.803    51.851
3620.39     61.998    49.426
3673.05     62.213    46.194
3726.47     62.420    41.777
3780.67     62.409    37.016
3835.67     62.224    32.721
3891.46     61.951    29.309
3948.06     61.735    27.463
4005.49     61.671    25.876
4063.75     61.720    23.909
4122.86     61.835    21.249
4182.82     61.916    17.701
4243.66     61.850    14.092
4305.39     61.794    10.675
4368.01     61.728     7.569
4431.55     61.680     4.761
4496.01     61.659     1.717
4561.40     61.601    -1.788
4627.75     61.466    -5.196
4695.06     61.396    -8.586
4763.35     61.257   -12.242
4832.64     61.085   -15.702
4902.93     60.835   -18.856
4974.24     60.522   -21.262
5046.60     60.282   -22.554
5120.00     60.242   -23.709
5194.47     60.363   -25.774
5270.03     60.423   -28.782
5346.68     60.332   -32.402
5424.45     60.161   -35.681
5503.35     59.893   -38.444
5583.40     59.661   -41.380
5664.61     59.440   -43.984
5747.01     59.148   -46.883
5830.60     58.788   -49.732
5915.41     58.301   -52.174
6001.45     57.732   -54.103
6088.74     57.190   -55.574
6177.30     56.704   -56.521
6267.15     56.245   -57.756
6358.31     55.786   -58.205
6450.80     55.350   -57.216
6544.62     55.073   -54.946
6639.82     55.058   -52.853
6736.40     55.349   -51.291
6834.38     55.726   -51.601
6933.79     55.965   -53.215
7034.64     56.095   -55.306
7136.96     56.060   -57.983
7240.77     55.777   -60.414
7346.09     55.450   -60.214
7452.94     55.393   -59.616
7561.35     55.364   -60.040
7671.33     55.302   -59.308
7782.91     55.594   -59.492
7896.12     55.801   -62.684
8010.97     55.750   -65.842
8127.49     55.731   -68.731
8245.71     55.642   -71.855
8365.65     55.405   -74.132
8487.33     55.187   -74.991
8610.78     55.142   -75.696
8736.03     55.059   -77.008
8863.09     54.884   -77.287
8992.01     54.957   -77.061
9122.80     55.172   -78.337
9255.50     55.233   -79.649
9390.12     55.362   -80.457
9526.70     55.588   -82.885
9665.27     55.582   -86.575
9805.86     55.470   -89.275
9948.49     55.432   -92.488
10093.2     55.246   -96.250
10240.0     55.045   -98.669
10388.9     54.829  -101.594
10540.1     54.368  -103.269
10693.4     54.049  -102.732
10848.9     53.904  -102.584
11006.7     53.846  -101.519
11166.8     54.160  -100.893
11329.2     54.472  -102.605
11494.0     54.732  -103.909
11661.2     55.096  -106.321
11830.8     55.342  -109.292
12002.9     55.634  -112.149
12177.5     55.977  -116.457
12354.6     56.167  -121.918
12534.3     56.190  -128.032
12716.6     55.951  -134.160
12901.6     55.590  -139.544
13089.2     55.183  -144.527
13279.6     54.733  -149.167
13472.8     54.243  -154.179
13668.8     53.611  -158.532
13867.6     52.923  -162.276
14069.3     52.106  -165.815
14273.9     51.203  -167.205
14481.5     50.318  -168.208
14692.2     49.423  -167.733
14905.9     48.672  -165.988
15122.7     48.000  -163.865
15342.7     47.531  -160.152
15565.8     47.406  -155.949
15792.2     47.499  -152.301
16021.9     47.946  -149.134
16255.0     48.525  -148.143
16491.4     49.068  -148.518
16731.3     49.542  -150.085
16974.7     50.006  -152.467
17221.6     50.404  -155.046
17472.1     50.744  -158.683
17726.2     51.104  -163.422
17984.0     51.369  -169.158
18245.6     51.458  -175.775
18511.0     51.376   176.876
18780.2     51.091   170.018
19053.4     50.536   163.693
19330.5     49.720   159.378
19611.7     48.924   157.800
19897.0     48.336   158.133
20186.4     48.063   158.691
20480.0     48.297   158.361
20777.9     48.684   155.811
21080.1     49.006   150.519
21386.7     49.174   143.752
21697.8     49.043   136.900
22013.4     48.632   130.614
22333.6     48.088   125.699
22658.4     47.421   122.654
22988.0     46.780   120.713
23322.4     46.102   119.314
23661.6     45.199   119.513
