Freq[Hz]     dBSPL  Phase[Deg]
5.00000    -14.510   -16.462
5.07273    -14.166   -16.542
5.14651    -13.795   -16.626
5.22137    -13.384   -16.717
5.29732    -12.955   -16.812
5.37437    -12.509   -16.910
5.45254    -12.063   -17.009
5.53185    -11.616   -17.110
5.61231    -11.170   -17.212
5.69394    -10.724   -17.316
5.77676    -10.277   -17.422
5.86079     -9.831   -17.529
5.94604     -9.385   -17.637
6.03252     -8.938   -17.747
6.12027     -8.492   -17.858
6.20929     -8.045   -17.971
6.29961     -7.599   -18.086
6.39124     -7.152   -18.203
6.48420     -6.706   -18.321
6.57851     -6.259   -18.440
6.67420     -5.812   -18.562
6.77128     -5.366   -18.685
6.86977     -4.919   -18.810
6.96969     -4.472   -18.937
7.07107     -4.025   -19.066
7.17392     -3.578   -19.196
7.27827     -3.132   -19.329
7.38413     -2.685   -19.464
7.49154     -2.238   -19.600
7.60050     -1.791   -19.739
7.71105     -1.344   -19.879
7.82321     -0.897   -20.022
7.93701     -0.449   -20.167
8.05245     -0.002   -20.315
8.16958      0.445   -20.464
8.28841      0.892   -20.616
8.40896      1.340   -20.770
8.53128      1.787   -20.927
8.65537      2.234   -21.085
8.78126      2.682   -21.247
8.90899      3.129   -21.410
9.03857      3.577   -21.577
9.17004      4.024   -21.745
9.30342      4.472   -21.916
9.43874      4.920   -22.090
9.57603      5.367   -22.267
9.71532      5.815   -22.446
9.85663      6.263   -22.628
10.0000      6.711   -22.812
10.1455      7.159   -22.999
10.2930      7.607   -23.189
10.4427      8.055   -23.382
10.5946      8.503   -23.578
10.7487      8.952   -23.776
10.9051      9.400   -23.978
11.0637      9.848   -24.183
11.2246     10.297   -24.391
11.3879     10.746   -24.602
11.5535     11.194   -24.816
11.7216     11.643   -25.034
11.8921     12.092   -25.255
12.0650     12.541   -25.479
12.2405     12.990   -25.707
12.4186     13.439   -25.939
12.5992     13.888   -26.174
12.7825     14.338   -26.413
12.9684     14.787   -26.655
13.1570     15.237   -26.902
13.3484     15.687   -27.152
13.5426     16.136   -27.406
13.7395     16.586   -27.664
13.9394     17.036   -27.926
14.1421     17.487   -28.192
14.3478     17.937   -28.463
14.5565     18.387   -28.737
14.7683     18.838   -29.016
14.9831     19.289   -29.300
15.2010     19.739   -29.588
15.4221     20.190   -29.880
15.6464     20.642   -30.177
15.8740     21.093   -30.479
16.1049     21.545   -30.786
16.3392     21.996   -31.098
16.5768     22.448   -31.415
16.8179     22.900   -31.737
17.0626     23.352   -32.065
17.3107     23.805   -32.397
17.5625     24.257   -32.736
17.8180     24.710   -33.080
18.0771     25.163   -33.429
18.3401     25.616   -33.784
18.6068     26.070   -34.146
18.8775     26.523   -34.513
19.1521     26.977   -34.886
19.4306     27.431   -35.266
19.7133     27.892   -35.638
20.0000     28.370   -35.984
20.2909     28.879   -36.321
20.5860     29.426   -36.714
20.8855     29.982   -37.352
21.1893     30.521   -38.305
21.4975     31.013   -39.392
21.8102     31.435   -40.379
22.1274     31.803   -41.061
22.4492     32.168   -41.321
22.7758     32.566   -41.231
23.1071     33.012   -41.060
23.4432     33.511   -41.072
23.7841     34.033   -41.339
24.1301     34.547   -41.845
24.4811     35.042   -42.534
24.8372     35.516   -43.346
25.1984     35.980   -44.213
25.5649     36.447   -45.063
25.9368     36.925   -45.890
26.3141     37.420   -46.698
26.6968     37.922   -47.541
27.0851     38.420   -48.471
27.4791     38.907   -49.453
27.8788     39.376   -50.467
28.2843     39.833   -51.495
28.6957     40.287   -52.478
29.1131     40.746   -53.422
29.5365     41.219   -54.367
29.9661     41.707   -55.329
30.4020     42.205   -56.358
30.8442     42.704   -57.468
31.2929     43.191   -58.632
31.7480     43.668   -59.843
32.2098     44.140   -61.070
32.6783     44.611   -62.263
33.1536     45.095   -63.480
33.6359     45.595   -64.791
34.1251     46.107   -66.120
34.6215     46.603   -67.593
35.1250     47.068   -69.134
35.6359     47.512   -70.462
36.1543     47.947   -71.715
36.6802     48.393   -72.990
37.2137     48.869   -74.240
37.7550     49.371   -75.617
38.3041     49.886   -77.161
38.8613     50.387   -78.792
39.4265     50.875   -80.385
40.0000     51.351   -81.928
40.5818     51.826   -83.483
41.1721     52.304   -85.093
41.7710     52.783   -86.752
42.3785     53.264   -88.453
42.9949     53.747   -90.196
43.6203     54.237   -91.944
44.2548     54.728   -93.736
44.8985     55.220   -95.591
45.5515     55.714   -97.485
46.2141     56.202   -99.455
46.8863     56.682  -101.477
47.5683     57.153  -103.506
48.2602     57.620  -105.571
48.9621     58.089  -107.691
49.6743     58.557  -109.860
50.3968     59.027  -112.111
51.1299     59.499  -114.430
51.8736     59.964  -116.787
52.6281     60.422  -119.155
53.3936     60.874  -121.507
54.1702     61.323  -123.900
54.9581     61.767  -126.389
55.7575     62.208  -128.952
56.5685     62.642  -131.617
57.3914     63.068  -134.354
58.2261     63.485  -137.099
59.0730     63.893  -139.866
59.9323     64.295  -142.672
60.8040     64.691  -145.515
61.6884     65.080  -148.420
62.5857     65.461  -151.358
63.4960     65.830  -154.355
64.4196     66.183  -157.418
65.3566     66.519  -160.515
66.3073     66.840  -163.652
67.2717     67.149  -166.789
68.2502     67.450  -169.891
69.2429     67.746  -172.988
70.2501     68.035  -176.096
71.2719     68.313  -179.257
72.3086     68.573   177.522
73.3603     68.813   174.285
74.4274     69.037   171.063
75.5099     69.248   167.886
76.6083     69.449   164.760
77.7226     69.641   161.661
78.8531     69.823   158.579
80.0000     69.987   155.514
81.1636     70.135   152.472
82.3442     70.273   149.481
83.5419     70.404   146.542
84.7570     70.528   143.621
85.9899     70.648   140.725
87.2406     70.758   137.868
88.5096     70.854   135.035
89.7970     70.940   132.245
91.1031     71.016   129.520
92.4282     71.084   126.848
93.7726     71.147   124.222
95.1366     71.203   121.644
96.5204     71.252   119.109
97.9243     71.295   116.624
99.3486     71.330   114.188
100.794     71.358   111.801
102.260     71.383   109.471
103.747     71.401   107.196
105.256     71.415   104.976
106.787     71.428   102.807
108.340     71.441   100.669
109.916     71.450    98.572
111.515     71.455    96.505
113.137     71.455    94.494
114.783     71.447    92.541
116.452     71.438    90.646
118.146     71.429    88.802
119.865     71.418    87.015
121.608     71.408    85.243
123.377     71.397    83.521
125.171     71.380    81.856
126.992     71.365    80.244
128.839     71.353    78.680
130.713     71.347    77.174
132.615     71.348    75.657
134.543     71.352    74.163
136.500     71.359    72.649
138.486     71.363    71.086
140.500     71.357    69.531
142.544     71.345    67.982
144.617     71.325    66.472
146.721     71.303    65.045
148.855     71.285    63.653
151.020     71.271    62.299
153.217     71.259    60.935
155.445     71.246    59.564
157.706     71.230    58.190
160.000     71.204    56.825
162.327     71.173    55.541
164.688     71.142    54.327
167.084     71.113    53.163
169.514     71.088    52.054
171.980     71.070    50.971
174.481     71.060    49.889
177.019     71.051    48.801
179.594     71.047    47.730
182.206     71.047    46.644
184.856     71.048    45.532
187.545     71.050    44.389
190.273     71.045    43.215
193.041     71.033    42.050
195.849     71.014    40.914
198.697     70.990    39.837
201.587     70.971    38.809
204.520     70.952    37.765
207.494     70.926    36.757
210.512     70.901    35.809
213.574     70.876    34.943
216.681     70.861    34.153
219.833     70.863    33.402
223.030     70.886    32.591
226.274     70.918    31.606
229.565     70.939    30.475
232.905     70.938    29.313
236.292     70.928    28.172
239.729     70.903    27.077
243.216     70.873    26.062
246.754     70.845    25.109
250.343     70.815    24.161
253.984     70.778    23.248
257.678     70.742    22.488
261.426     70.724    21.761
265.229     70.721    21.009
269.087     70.726    20.187
273.001     70.734    19.191
276.972     70.709    18.143
281.000     70.668    17.238
285.088     70.634    16.449
289.234     70.611    15.765
293.441     70.613    15.015
297.709     70.619    14.115
302.040     70.608    13.111
306.433     70.568    12.095
310.890     70.505    11.313
315.412     70.455    10.748
320.000     70.436    10.294
324.655     70.456     9.782
329.377     70.495     9.031
334.168     70.527     8.057
339.028     70.536     6.944
343.959     70.499     5.782
348.962     70.440     4.875
354.038     70.394     4.120
359.188     70.347     3.354
364.412     70.311     2.763
369.713     70.318     2.082
375.090     70.317     1.091
380.546     70.275     0.121
386.081     70.228    -0.784
391.697     70.168    -1.613
397.394     70.094    -2.428
403.175     69.999    -3.147
409.039     69.901    -3.473
414.989     69.839    -3.737
421.025     69.805    -3.807
427.149     69.825    -3.864
433.362     69.885    -4.252
439.665     69.933    -4.999
446.060     69.952    -6.086
452.548     69.896    -7.285
459.131     69.775    -8.119
465.809     69.651    -8.499
472.584     69.548    -8.342
479.458     69.536    -7.845
486.432     69.631    -7.493
493.507     69.765    -7.670
500.686     69.904    -8.240
507.968     70.025    -9.287
515.357     70.073   -10.698
522.853     70.038   -11.862
530.458     70.012   -12.759
538.174     69.966   -13.459
546.002     69.955   -13.891
553.943     69.988   -14.575
562.001     69.977   -15.362
570.175     69.994   -15.865
578.469     70.008   -16.753
586.883     69.970   -17.371
595.419     69.990   -17.617
604.080     70.044   -18.175
612.866     70.124   -18.966
621.780     70.194   -20.009
630.824     70.222   -21.299
640.000     70.220   -22.485
649.309     70.208   -23.513
658.753     70.206   -24.631
668.335     70.157   -25.865
678.056     70.114   -26.800
687.919     70.043   -27.808
697.925     69.918   -28.270
708.077     69.899   -27.939
718.376     70.041   -27.874
728.825     70.210   -29.243
739.426     70.201   -31.040
750.181     70.135   -31.904
761.093     70.118   -32.828
772.163     70.090   -33.493
783.394     70.115   -34.007
794.789     70.139   -35.035
806.349     70.147   -35.879
818.078     70.208   -36.785
829.977     70.244   -38.104
842.050     70.264   -39.203
854.298     70.313   -40.276
866.724     70.326   -41.599
879.330     70.322   -42.993
892.120     70.319   -44.186
905.097     70.315   -45.405
918.262     70.327   -46.746
931.618     70.323   -48.047
945.169     70.330   -49.319
958.917     70.327   -50.652
972.864     70.347   -52.012
987.015     70.373   -53.567
1001.37     70.393   -55.198
1015.94     70.424   -57.028
1030.71     70.430   -59.006
1045.71     70.362   -60.910
1060.92     70.297   -62.562
1076.35     70.231   -64.523
1092.00     70.101   -66.399
1107.89     69.965   -68.044
1124.00     69.893   -69.707
1140.35     69.788   -71.888
1156.94     69.462   -73.399
1173.77     69.253   -73.454
1190.84     69.250   -73.511
1208.16     69.249   -74.395
1225.73     69.310   -75.510
1243.56     69.344   -77.458
1261.65     69.247   -79.274
1280.00     69.216   -80.726
1298.62     69.140   -82.312
1317.51     69.099   -83.526
1336.67     69.155   -85.053
1356.11     69.123   -87.154
1375.84     69.067   -89.058
1395.85     68.995   -91.107
1416.15     68.828   -92.945
1436.75     68.703   -94.404
1457.65     68.589   -95.863
1478.85     68.494   -97.208
1500.36     68.421   -98.677
1522.19     68.338  -100.004
1544.33     68.280  -101.023
1566.79     68.334  -102.321
1589.58     68.407  -103.763
1612.70     68.499  -105.636
1636.16     68.571  -108.226
1659.95     68.603  -110.762
1684.10     68.565  -113.468
1708.60     68.550  -116.357
1733.45     68.499  -119.000
1758.66     68.429  -121.731
1784.24     68.332  -124.538
1810.19     68.172  -127.086
1836.52     67.985  -129.378
1863.24     67.812  -131.690
1890.34     67.604  -133.725
1917.83     67.524  -135.360
1945.73     67.533  -137.020
1974.03     67.599  -138.896
2002.74     67.749  -141.044
2031.87     67.874  -143.936
2061.43     67.911  -147.567
2091.41     67.855  -151.490
2121.83     67.692  -155.289
2152.69     67.480  -158.508
2184.01     67.279  -161.148
2215.77     67.084  -163.615
2248.00     66.911  -165.573
2280.70     66.826  -167.230
2313.87     66.851  -169.130
2347.53     66.947  -171.198
2381.68     67.105  -173.588
2416.32     67.268  -176.402
2451.46     67.432  -179.663
2487.12     67.494   176.972
2523.30     67.511   173.959
2560.00     67.558   170.971
2597.24     67.600   167.998
2635.01     67.650   164.900
2673.34     67.730   161.613
2712.23     67.818   158.056
2751.68     67.868   154.079
2791.70     67.859   150.099
2832.31     67.829   146.077
2873.50     67.707   142.215
2915.30     67.587   139.243
2957.70     67.553   136.581
3000.72     67.536   134.159
3044.37     67.610   131.922
3088.65     67.759   129.076
3133.58     67.847   125.797
3179.16     67.922   122.519
3225.40     67.959   119.054
3272.31     67.928   116.010
3319.91     67.941   113.511
3368.20     67.987   111.010
3417.19     68.052   108.618
3466.89     68.194   106.015
3517.32     68.331   102.912
3568.48     68.443    99.643
3620.39     68.507    96.041
3673.05     68.469    92.754
3726.47     68.420    89.958
3780.67     68.352    87.632
3835.67     68.337    85.880
3891.46     68.444    84.123
3948.06     68.612    82.084
4005.49     68.825    79.461
4063.75     68.995    76.333
4122.86     69.083    73.055
4182.82     69.130    69.930
4243.66     69.147    67.059
4305.39     69.159    64.374
4368.01     69.181    61.737
4431.55     69.208    59.070
4496.01     69.218    56.252
4561.40     69.237    53.702
4627.75     69.272    50.754
4695.06     69.283    47.618
4763.35     69.243    44.324
4832.64     69.117    41.065
4902.93     68.902    38.233
4974.24     68.634    36.405
5046.60     68.421    35.833
5120.00     68.391    35.858
5194.47     68.505    35.233
5270.03     68.638    33.822
5346.68     68.753    31.932
5424.45     68.866    29.942
5503.35     69.009    27.531
5583.40     69.153    24.538
5664.61     69.188    20.894
5747.01     69.085    17.009
5830.60     68.824    13.728
5915.41     68.459    11.346
6001.45     68.091     9.808
6088.74     67.758     8.928
6177.30     67.469     8.264
6267.15     67.227     7.913
6358.31     67.033     8.073
6450.80     66.937     8.590
6544.62     66.971     9.083
6639.82     67.096     9.145
6736.40     67.231     8.688
6834.38     67.371     8.091
6933.79     67.533     7.315
7034.64     67.687     6.370
7136.96     67.896     5.445
7240.77     68.160     3.795
7346.09     68.358     1.359
7452.94     68.492    -1.007
7561.35     68.620    -3.511
7671.33     68.665    -6.357
7782.91     68.588    -8.779
7896.12     68.522   -10.792
8010.97     68.460   -12.989
8127.49     68.314   -15.162
8245.71     68.210   -16.902
8365.65     68.144   -18.854
8487.33     68.000   -20.889
8610.78     67.810   -22.474
8736.03     67.645   -23.741
8863.09     67.506   -24.923
8992.01     67.392   -26.094
9122.80     67.328   -27.280
9255.50     67.324   -28.634
9390.12     67.323   -30.322
9526.70     67.304   -32.187
9665.27     67.239   -34.320
9805.86     67.090   -36.276
9948.49     66.944   -37.916
10093.2     66.787   -39.714
10240.0     66.592   -41.175
10388.9     66.442   -42.425
10540.1     66.278   -43.738
10693.4     66.125   -44.476
10848.9     66.073   -45.410
11006.7     65.992   -46.755
11166.8     65.902   -48.083
11329.2     65.772   -49.635
11494.0     65.610   -50.713
11661.2     65.488   -51.680
11830.8     65.386   -52.435
12002.9     65.383   -53.186
12177.5     65.424   -54.816
12354.6     65.375   -57.020
12534.3     65.248   -59.459
12716.6     64.952   -61.840
12901.6     64.617   -63.011
13089.2     64.386   -63.833
13279.6     64.159   -64.766
13472.8     63.972   -65.341
13668.8     63.816   -66.261
13867.6     63.598   -66.912
14069.3     63.407   -67.142
14273.9     63.236   -67.277
14481.5     63.112   -66.861
14692.2     63.088   -66.719
14905.9     63.116   -66.677
15122.7     63.227   -67.062
15342.7     63.328   -67.976
15565.8     63.429   -69.175
15792.2     63.503   -70.611
16021.9     63.536   -72.014
16255.0     63.587   -73.281
16491.4     63.681   -74.516
16731.3     63.809   -75.927
16974.7     63.979   -77.951
17221.6     64.096   -80.128
17472.1     64.184   -82.896
17726.2     64.180   -85.499
17984.0     64.138   -88.311
18245.6     64.054   -91.161
18511.0     63.934   -94.354
18780.2     63.695   -97.673
19053.4     63.361  -100.927
19330.5     62.919  -103.282
19611.7     62.430  -104.627
19897.0     62.026  -104.718
20186.4     61.777  -103.556
20480.0     61.729  -101.994
20777.9     61.993  -100.414
21080.1     62.424   -99.394
21386.7     63.031  -100.226
21697.8     63.696  -102.467
22013.4     64.266  -106.538
22333.6     64.775  -112.284
22658.4     65.062  -119.013
22988.0     65.056  -126.964
23322.4     64.630  -135.194
23661.6     63.468  -140.807
