Freq[Hz]     dBSPL  Phase[Deg]
5.00000    -14.184     3.004
5.07273    -14.107     5.163
5.14651    -14.050     7.457
5.22137    -14.048    10.128
5.29732    -14.046    12.799
5.37437    -14.045    15.470
5.45254    -14.043    18.141
5.53185    -14.026    21.306
5.61231    -13.994    24.994
5.69394    -13.962    28.682
5.77676    -13.930    32.369
5.86079    -13.895    36.062
5.94604    -13.708    40.064
6.03252    -13.521    44.066
6.12027    -13.335    48.067
6.20929    -13.148    52.069
6.29961    -12.913    55.447
6.39124    -12.667    58.687
6.48420    -12.422    61.927
6.57851    -12.176    65.167
6.67420    -12.035    68.172
6.77128    -11.911    71.138
6.86977    -11.788    74.105
6.96969    -11.678    77.208
7.07107    -11.678    81.350
7.17392    -11.677    85.492
7.27827    -11.677    89.633
7.38413    -11.582    94.802
7.49154    -11.414   100.765
7.60050    -11.245   106.728
7.71105    -11.015   112.598
7.82321    -10.511   118.062
7.93701    -10.008   123.527
8.05245     -9.504   128.991
8.16958     -9.024   132.533
8.28841     -8.545   136.003
8.40896     -8.066   139.473
8.53128     -7.925   143.025
8.65537     -7.828   146.587
8.78126     -7.731   150.150
8.90899     -7.859   158.438
9.03857     -8.002   167.035
9.17004     -7.998   176.156
9.30342     -6.829  -170.559
9.43874     -5.660  -157.274
9.57603     -4.118  -147.146
9.71532     -2.007  -141.845
9.85663      0.104  -136.543
10.0000      1.921  -135.874
10.1455      3.656  -136.497
10.2930      5.269  -137.798
10.4427      6.540  -140.998
10.5946      7.811  -144.198
10.7487      8.788  -148.520
10.9051      9.706  -153.066
11.0637     10.473  -158.031
11.2246     11.080  -163.440
11.3879     11.624  -168.991
11.5535     11.935  -175.060
11.7216     12.240   178.861
11.8921     12.249   172.203
12.0650     12.258   165.544
12.2405     11.979   158.338
12.4186     11.662   151.061
12.5992     11.042   143.089
12.7825     10.354   134.962
12.9684      9.314   125.639
13.1570      8.192   116.038
13.3484      6.672   103.684
13.5426      5.089    90.882
13.7395      3.443    71.426
13.9394      1.962    51.097
14.1421      1.749    26.083
14.3478      1.985     3.393
14.5565      3.186   -14.298
14.7683      4.447   -27.600
14.9831      5.754   -37.512
15.2010      6.884   -44.358
15.4221      7.941   -50.423
15.6464      8.810   -55.358
15.8740      9.526   -59.893
16.1049     10.119   -64.109
16.3392     10.409   -67.165
16.5768     10.595   -69.111
16.8179     10.645   -69.507
17.0626     10.825   -66.422
17.3107     11.312   -62.131
17.5625     12.241   -56.688
17.8180     13.805   -54.146
18.0771     15.448   -54.130
18.3401     17.093   -56.688
18.6068     18.470   -61.925
18.8775     19.533   -68.038
19.1521     20.311   -74.272
19.4306     20.795   -80.045
19.7133     20.942   -83.728
20.0000     21.018   -84.221
20.2909     21.321   -81.788
20.5860     22.075   -77.448
20.8855     23.452   -73.358
21.1893     25.241   -72.999
21.4975     26.955   -75.704
21.8102     28.452   -80.312
22.1274     29.675   -85.848
22.4492     30.631   -91.413
22.7758     31.375   -96.282
23.1071     32.006   -99.978
23.4432     32.653  -102.433
23.7841     33.439  -104.166
24.1301     34.374  -106.129
24.4811     35.386  -108.898
24.8372     36.378  -112.554
25.1984     37.285  -116.813
25.5649     38.082  -121.238
25.9368     38.789  -125.434
26.3141     39.450  -129.171
26.6968     40.119  -132.434
27.0851     40.834  -135.384
27.4791     41.610  -138.269
27.8788     42.437  -141.322
28.2843     43.293  -144.665
28.6957     44.149  -148.327
29.1131     44.984  -152.263
29.5365     45.782  -156.367
29.9661     46.537  -160.509
30.4020     47.256  -164.580
30.8442     47.951  -168.531
31.2929     48.634  -172.432
31.7480     49.303  -176.364
32.2098     49.952   179.637
32.6783     50.562   175.595
33.1536     51.140   171.581
33.6359     51.694   167.621
34.1251     52.236   163.689
34.6215     52.766   159.728
35.1250     53.285   155.711
35.6359     53.789   151.637
36.1543     54.280   147.538
36.6802     54.763   143.436
37.2137     55.239   139.363
37.7550     55.716   135.344
38.3041     56.197   131.387
38.8613     56.683   127.461
39.4265     57.172   123.554
40.0000     57.656   119.695
40.5818     58.132   115.932
41.1721     58.605   112.277
41.7710     59.071   108.702
42.3785     59.525   105.214
42.9949     59.967   101.844
43.6203     60.405    98.590
44.2548     60.849    95.369
44.8985     61.294    92.059
45.5515     61.725    88.643
46.2141     62.141    85.178
46.8863     62.552    81.696
47.5683     62.970    78.132
48.2602     63.390    74.433
48.9621     63.807    70.656
49.6743     64.229    66.879
50.3968     64.666    63.072
51.1299     65.116    59.187
51.8736     65.562    55.274
52.6281     66.006    51.405
53.3936     66.448    47.565
54.1702     66.880    43.731
54.9581     67.296    39.886
55.7575     67.687    35.978
56.5685     68.044    32.008
57.3914     68.369    27.988
58.2261     68.665    23.857
59.0730     68.926    19.672
59.9323     69.192    15.459
60.8040     69.467    11.003
61.6884     69.725     6.403
62.5857     70.004     1.924
63.4960     70.335    -2.827
64.4196     70.632    -7.899
65.3566     70.888   -12.697
66.3073     71.163   -17.320
67.2717     71.416   -21.989
68.2502     71.638   -26.467
69.2429     71.852   -30.865
70.2501     72.033   -35.258
71.2719     72.191   -39.590
72.3086     72.332   -43.953
73.3603     72.457   -48.372
74.4274     72.562   -52.900
75.5099     72.645   -57.414
76.6083     72.728   -61.871
77.7226     72.808   -66.322
78.8531     72.884   -70.717
80.0000     72.956   -75.010
81.1636     73.034   -79.247
82.3442     73.102   -83.499
83.5419     73.171   -87.709
84.7570     73.244   -91.929
85.9899     73.321   -96.106
87.2406     73.405  -100.202
88.5096     73.489  -104.129
89.7970     73.568  -107.930
91.1031     73.633  -111.639
92.4282     73.689  -115.378
93.7726     73.743  -119.270
95.1366     73.810  -123.370
96.5204     73.898  -127.645
97.9243     74.006  -131.942
99.3486     74.128  -136.136
100.794     74.252  -140.176
102.260     74.366  -144.188
103.747     74.464  -148.201
105.256     74.559  -152.373
106.787     74.645  -156.672
108.340     74.718  -160.874
109.916     74.810  -165.011
111.515     74.876  -169.033
113.137     74.958  -172.953
114.783     75.060  -177.031
116.452     75.165   178.773
118.146     75.296   174.601
119.865     75.424   170.550
121.608     75.536   166.637
123.377     75.623   162.791
125.171     75.690   158.822
126.992     75.769   154.508
128.839     75.864   149.964
130.713     75.956   145.345
132.615     76.003   140.928
134.543     76.018   136.839
136.500     76.056   132.807
138.486     76.102   128.724
140.500     76.070   124.368
142.544     75.996   120.411
144.617     75.973   117.089
146.721     75.947   113.809
148.855     75.951   110.328
151.020     75.956   106.911
153.217     75.957   103.764
155.445     75.949   100.697
157.706     75.945    97.936
160.000     75.972    95.027
162.327     76.012    92.058
164.688     76.057    89.250
167.084     76.091    86.230
169.514     76.120    83.086
171.980     76.105    79.584
174.481     76.003    76.779
177.019     75.993    74.866
179.594     76.048    72.554
182.206     76.057    69.797
184.856     76.048    67.454
187.545     76.086    65.513
190.273     76.103    63.072
193.041     76.025    60.182
195.849     75.973    58.004
198.697     75.983    56.023
201.587     75.938    54.055
204.520     75.865    52.199
207.494     75.878    50.332
210.512     75.876    48.471
213.574     75.824    46.975
216.681     75.810    45.523
219.833     75.821    43.768
223.030     75.821    42.379
226.274     75.838    40.907
229.565     75.818    39.151
232.905     75.821    37.556
236.292     75.785    36.284
239.729     75.761    35.108
243.216     75.750    33.649
246.754     75.701    32.084
250.343     75.519    31.099
253.984     75.508    30.955
257.678     75.574    30.157
261.426     75.645    28.921
265.229     75.626    27.475
269.087     75.525    26.517
273.001     75.503    25.545
276.972     75.412    24.722
281.000     75.418    24.911
285.088     75.537    24.091
289.234     75.553    22.774
293.441     75.583    21.483
297.709     75.495    19.975
302.040     75.379    18.890
306.433     75.266    17.966
310.890     75.224    16.657
315.412     75.040    16.308
320.000     74.985    15.221
324.655     74.769    14.051
329.377     74.522    13.797
334.168     74.312    14.617
339.028     74.303    14.447
343.959     74.216    13.591
348.962     74.086    13.095
354.038     73.864    12.743
359.188     73.692    13.279
364.412     73.487    12.517
369.713     73.281    13.282
375.090     73.178    12.926
380.546     72.812    13.172
386.081     72.617    14.163
391.697     72.364    15.441
397.394     72.316    16.737
403.175     72.254    17.270
409.039     72.079    18.584
414.989     72.050    19.476
421.025     72.027    20.035
427.149     71.943    21.193
433.362     72.122    22.075
439.665     72.136    21.508
446.060     72.090    20.852
452.548     71.991    20.194
459.131     71.753    20.596
465.809     71.766    20.479
472.584     71.585    20.373
479.458     71.633    20.054
486.432     71.488    18.399
493.507     71.302    18.552
500.686     71.370    18.160
507.968     71.285    16.800
515.357     71.150    15.965
522.853     71.104    15.150
530.458     71.042    13.726
538.174     70.876    11.841
546.002     70.574    10.655
553.943     70.303     9.883
562.001     70.021     9.230
570.175     69.656     8.936
578.469     69.310     8.977
586.883     68.902     9.075
595.419     68.468     9.891
604.080     68.014    11.382
612.866     67.582    13.319
621.780     67.214    16.070
630.824     66.899    19.379
640.000     66.703    23.037
649.309     66.628    27.016
658.753     66.696    30.919
668.335     66.899    34.819
678.056     67.207    38.097
687.919     67.605    40.729
697.925     68.065    42.796
708.077     68.534    44.010
718.376     69.005    44.712
728.825     69.456    44.717
739.426     69.884    44.268
750.181     70.258    43.349
761.093     70.596    42.036
772.163     70.875    40.467
783.394     71.092    38.622
794.789     71.259    36.614
806.349     71.346    34.490
818.078     71.373    32.319
829.977     71.325    30.146
842.050     71.212    28.111
854.298     71.026    26.272
866.724     70.772    24.776
879.330     70.459    23.634
892.120     70.097    23.121
905.097     69.708    23.271
918.262     69.335    24.188
931.618     69.020    25.925
945.169     68.795    28.284
958.917     68.737    30.944
972.864     68.833    33.613
987.015     69.058    35.771
1001.37     69.389    37.085
1015.94     69.757    37.519
1030.71     70.114    36.959
1045.71     70.423    35.619
1060.92     70.656    33.606
1076.35     70.784    31.143
1092.00     70.811    28.500
1107.89     70.712    25.714
1124.00     70.515    23.099
1140.35     70.208    20.837
1156.94     69.813    19.105
1173.77     69.381    18.011
1190.84     68.945    17.754
1208.16     68.544    18.168
1225.73     68.242    19.019
1243.56     68.056    19.890
1261.65     67.979    20.443
1280.00     67.950    20.197
1298.62     67.917    19.121
1317.51     67.809    17.251
1336.67     67.577    14.609
1356.11     67.181    11.585
1375.84     66.584     8.549
1395.85     65.754     5.884
1416.15     64.687     4.222
1436.75     63.431     4.234
1457.65     62.052     7.088
1478.85     60.780    13.250
1500.36     59.974    22.256
1522.19     59.832    31.404
1544.33     60.183    37.978
1566.79     60.620    41.276
1589.58     60.909    41.861
1612.70     60.889    41.050
1636.16     60.527    40.004
1659.95     59.820    39.732
1684.10     58.853    41.322
1708.60     57.845    46.203
1733.45     57.083    53.785
1758.66     56.834    62.725
1784.24     56.964    69.852
1810.19     57.196    74.609
1836.52     57.236    78.095
1863.24     57.017    81.968
1890.34     56.691    88.034
1917.83     56.644    96.459
1945.73     57.165   105.090
1974.03     58.102   110.820
2002.74     59.061   113.111
2031.87     59.692   112.587
2061.43     59.916   111.150
2091.41     59.700   110.535
2121.83     59.132   112.532
2152.69     58.549   118.123
2184.01     58.403   127.499
2215.77     58.979   137.381
2248.00     60.127   144.488
2280.70     61.412   148.094
2313.87     62.609   148.750
2347.53     63.610   147.484
2381.68     64.364   145.080
2416.32     64.854   142.275
2451.46     65.128   139.574
2487.12     65.221   137.595
2523.30     65.252   136.526
2560.00     65.289   136.192
2597.24     65.376   136.186
2635.01     65.485   136.215
2673.34     65.606   136.183
2712.23     65.741   136.202
2751.68     65.918   136.049
2791.70     66.117   135.499
2832.31     66.275   134.413
2873.50     66.358   133.062
2915.30     66.360   131.870
2957.70     66.325   130.945
3000.72     66.301   130.258
3044.37     66.290   129.571
3088.65     66.292   128.849
3133.58     66.305   128.032
3179.16     66.328   126.839
3225.40     66.311   125.179
3272.31     66.193   123.336
3319.91     65.973   121.918
3368.20     65.734   121.145
3417.19     65.545   120.928
3466.89     65.429   120.988
3517.32     65.430   121.050
3568.48     65.531   120.479
3620.39     65.620   118.868
3673.05     65.566   116.765
3726.47     65.412   115.430
3780.67     65.339   115.025
3835.67     65.433   114.417
3891.46     65.561   113.141
3948.06     65.686   111.930
4005.49     65.922   110.639
4063.75     66.270   108.495
4122.86     66.606   105.392
4182.82     66.930   101.761
4243.66     67.227    97.261
4305.39     67.398    91.973
4368.01     67.417    86.768
4431.55     67.387    81.777
4496.01     67.249    76.506
4561.40     66.885    71.969
4627.75     66.500    69.483
4695.06     66.315    67.884
4763.35     66.190    66.156
4832.64     66.133    65.205
4902.93     66.278    64.161
4974.24     66.460    62.219
5046.60     66.663    60.209
5120.00     66.927    57.376
5194.47     67.055    53.856
5270.03     67.114    50.717
5346.68     67.172    47.254
5424.45     67.039    43.869
5503.35     66.908    41.778
5583.40     66.865    39.793
5664.61     66.856    37.986
5747.01     66.953    35.532
5830.60     66.895    32.351
5915.41     66.810    29.891
6001.45     66.737    26.572
6088.74     66.436    23.648
6177.30     66.152    21.576
6267.15     65.799    19.950
6358.31     65.573    19.347
6450.80     65.348    18.144
6544.62     65.159    18.317
6639.82     65.186    17.638
6736.40     65.193    16.906
6834.38     65.379    14.653
6933.79     65.241    10.946
7034.64     64.825     7.804
7136.96     64.198     7.263
7240.77     63.898     8.413
7346.09     63.700     9.771
7452.94     63.737    10.906
7561.35     63.804    11.979
7671.33     64.075    12.146
7782.91     64.363    11.885
7896.12     64.717     9.010
8010.97     64.593     5.795
8127.49     64.269     4.597
8245.71     64.194     5.356
8365.65     64.253     4.901
8487.33     64.396     3.321
8610.78     64.384     0.838
8736.03     64.314    -3.333
8863.09     64.003    -7.928
8992.01     63.242   -13.813
9122.80     62.012   -17.360
9255.50     60.602   -16.620
9390.12     59.515   -12.195
9526.70     59.304    -6.366
9665.27     59.423    -4.208
9805.86     59.366    -4.028
9948.49     59.451    -2.559
10093.2     59.806    -1.419
10240.0     60.381    -3.058
10388.9     60.674    -8.226
10540.1     60.522   -11.553
10693.4     60.384   -14.573
10848.9     60.114   -17.509
11006.7     59.799   -20.407
11166.8     59.260   -20.523
11329.2     59.178   -19.922
11494.0     59.171   -21.739
11661.2     58.859   -24.398
11830.8     58.296   -23.887
12002.9     58.397   -22.311
12177.5     58.584   -25.010
12354.6     58.236   -29.202
12534.3     57.518   -30.648
12716.6     57.174   -29.568
12901.6     57.176   -29.977
13089.2     57.269   -33.216
13279.6     57.094   -38.875
13472.8     56.447   -46.527
13668.8     55.158   -53.646
13867.6     53.181   -57.425
14069.3     51.014   -55.838
14273.9     48.926   -46.085
14481.5     48.315   -31.360
14692.2     48.998   -22.938
14905.9     49.378   -20.922
15122.7     49.499   -19.387
15342.7     49.392   -18.626
15565.8     49.347   -17.688
15792.2     49.196   -18.871
16021.9     48.737   -20.311
16255.0     47.588   -25.054
16491.4     45.398   -23.885
16731.3     42.344   -13.068
16974.7     41.464    19.478
17221.6     44.231    38.517
17472.1     46.636    41.482
17726.2     48.000    40.141
17984.0     48.794    38.195
18245.6     49.351    37.546
18511.0     50.122    35.951
18780.2     50.456    33.799
19053.4     50.979    31.992
19330.5     51.375    28.531
19611.7     51.667    25.963
19897.0     52.175    23.293
20186.4     52.805    17.286
20480.0     52.812     8.143
20777.9     52.327     1.535
21080.1     52.063    -3.002
21386.7     51.781    -9.720
21697.8     51.376   -17.545
22013.4     50.649   -26.269
22333.6     49.487   -35.125
22658.4     48.143   -41.979
22988.0     46.643   -50.720
23322.4     44.464   -58.360
23661.6     42.111   -64.593
24005.8     39.251   -72.184
24355.0     35.315   -81.857
24709.2     28.221   -98.202
25068.6     16.549   109.131
25433.2     25.812    87.563
25803.2     31.074    71.831
26178.5     32.672    64.421
26559.3     33.316    62.363
26945.6     33.777    63.741
27337.5     35.053    67.030
27735.2     36.493    64.816
28138.6     37.629    55.694
28547.9     37.169    48.441
28963.1     36.431    39.408
29384.4     33.464    40.757
29811.8     31.875    57.413
30245.4     32.223    70.499
30685.3     32.881    80.332
31131.7     33.746    86.348
31584.5     34.748    87.487
32043.9     35.843    83.786
32510.0     36.575    76.661
32982.8     37.245    66.353
33462.6     37.124    49.460
33949.3     35.273    30.736
34443.1     32.703    20.908
34944.1     30.739    10.160
35452.4     27.003     0.144
35968.0     23.701  -170.411
36491.2     20.055    -3.784
37022.0     18.452    38.278
37560.5     17.934    27.896
38106.8     17.856   -89.902
38661.1     17.710  -163.407
39223.4     18.023  -129.549
39793.9     19.156  -122.927
