Freq[Hz]     dBSPL  Phase[Deg]
5.00000    -12.039    -2.766
5.07273    -11.951    -0.640
5.14651    -11.882     1.624
5.22137    -11.869     4.275
5.29732    -11.855     6.927
5.37437    -11.842     9.578
5.45254    -11.828    12.229
5.53185    -11.800    15.382
5.61231    -11.756    19.066
5.69394    -11.711    22.749
5.77676    -11.667    26.433
5.86079    -11.621    30.122
5.94604    -11.423    34.137
6.03252    -11.225    38.152
6.12027    -11.028    42.167
6.20929    -10.830    46.181
6.29961    -10.585    49.586
6.39124    -10.330    52.856
6.48420    -10.076    56.126
6.57851     -9.821    59.396
6.67420     -9.672    62.444
6.77128     -9.541    65.456
6.86977     -9.410    68.468
6.96969     -9.294    71.618
7.07107     -9.289    75.818
7.17392     -9.285    80.018
7.27827     -9.281    84.218
7.38413     -9.184    89.450
7.49154     -9.015    95.480
7.60050     -8.846   101.510
7.71105     -8.616   107.448
7.82321     -8.117   112.983
7.93701     -7.617   118.518
8.05245     -7.117   124.053
8.16958     -6.645   127.664
8.28841     -6.175   131.203
8.40896     -5.704   134.741
8.53128     -5.575   138.355
8.65537     -5.491   141.978
8.78126     -5.407   145.601
8.90899     -5.553   153.936
9.03857     -5.713   162.579
9.17004     -5.728   171.744
9.30342     -4.580  -174.945
9.43874     -3.433  -161.635
9.57603     -1.914  -151.492
9.71532      0.172  -146.191
9.85663      2.258  -140.890
10.0000      4.047  -140.246
10.1455      5.754  -140.900
10.2930      7.338  -142.243
10.4427      8.578  -145.509
10.5946      9.818  -148.776
10.7487     10.764  -153.196
10.9051     11.651  -157.846
11.0637     12.387  -162.935
11.2246     12.962  -168.487
11.3879     13.474  -174.190
11.5535     13.754   179.560
11.7216     14.030   173.299
11.8921     14.011   166.422
12.0650     13.992   159.545
12.2405     13.687   152.092
12.4186     13.346   144.564
12.5992     12.705   136.319
12.7825     11.997   127.914
12.9684     10.940   118.298
13.1570      9.803   108.398
13.3484      8.273    95.737
13.5426      6.679    82.626
13.7395      5.030    62.858
13.9394      3.545    42.217
14.1421      3.334    16.896
14.3478      3.572    -6.096
14.5565      4.780   -24.078
14.7683      6.050   -37.661
14.9831      7.368   -47.844
15.2010      8.511   -54.940
15.4221      9.581   -61.245
15.6464     10.465   -66.395
15.8740     11.196   -71.129
16.1049     11.805   -75.530
16.3392     12.112   -78.742
16.5768     12.313   -80.832
16.8179     12.377   -81.356
17.0626     12.568   -78.378
17.3107     13.065   -74.185
17.5625     14.002   -68.831
17.8180     15.571   -66.366
18.0771     17.216   -66.425
18.3401     18.861   -69.058
18.6068     20.236   -74.372
18.8775     21.293   -80.569
19.1521     22.063   -86.894
19.4306     22.538   -92.768
19.7133     22.674   -96.569
20.0000     22.737   -97.196
20.2909     23.027   -94.912
20.5860     23.770   -90.735
20.8855     25.137   -86.823
21.1893     26.916   -86.657
21.4975     28.622   -89.564
21.8102     30.113   -94.379
22.1274     31.333  -100.121
22.4492     32.288  -105.889
22.7758     33.034  -110.951
23.1071     33.670  -114.824
23.4432     34.322  -117.437
23.7841     35.114  -119.303
24.1301     36.055  -121.375
24.4811     37.071  -124.225
24.8372     38.063  -127.940
25.1984     38.967  -132.237
25.5649     39.756  -136.687
25.9368     40.450  -140.902
26.3141     41.093  -144.661
26.6968     41.738  -147.959
27.0851     42.422  -150.969
27.4791     43.163  -153.949
27.8788     43.953  -157.141
28.2843     44.769  -160.673
28.6957     45.588  -164.576
29.1131     46.388  -168.803
29.5365     47.155  -173.246
29.9661     47.887  -177.764
30.4020     48.591   177.764
30.8442     49.283   173.405
31.2929     49.975   169.109
31.7480     50.662   164.816
32.2098     51.337   160.506
32.6783     51.981   156.231
33.1536     52.597   152.066
33.6359     53.190   148.041
34.1251     53.766   144.139
34.6215     54.323   140.291
35.1250     54.860   136.451
35.6359     55.368   132.607
36.1543     55.849   128.759
36.6802     56.307   124.908
37.2137     56.746   121.056
37.7550     57.171   117.210
38.3041     57.593   113.354
38.8613     58.015   109.454
39.4265     58.439   105.490
40.0000     58.859   101.501
40.5818     59.277    97.544
41.1721     59.697    93.652
41.7710     60.120    89.814
42.3785     60.537    86.055
42.9949     60.950    82.422
43.6203     61.364    78.921
44.2548     61.788    75.475
44.8985     62.214    71.962
45.5515     62.629    68.363
46.2141     63.029    64.733
46.8863     63.426    61.105
47.5683     63.830    57.415
48.2602     64.237    53.614
48.9621     64.639    49.762
49.6743     65.044    45.937
50.3968     65.463    42.108
51.1299     65.886    38.212
51.8736     66.300    34.285
52.6281     66.706    30.377
53.3936     67.105    26.455
54.1702     67.494    22.481
54.9581     67.869    18.437
55.7575     68.229    14.281
56.5685     68.564    10.039
57.3914     68.881     5.754
58.2261     69.180     1.403
59.0730     69.455    -2.923
59.9323     69.735    -7.184
60.8040     70.023   -11.595
61.6884     70.285   -16.070
62.5857     70.558   -20.380
63.4960     70.871   -24.951
64.4196     71.139   -29.859
65.3566     71.360   -34.530
66.3073     71.594   -39.063
67.2717     71.807   -43.685
68.2502     71.988   -48.152
69.2429     72.161   -52.573
70.2501     72.306   -57.023
71.2719     72.431   -61.436
72.3086     72.548   -65.892
73.3603     72.656   -70.393
74.4274     72.751   -74.968
75.5099     72.828   -79.474
76.6083     72.903   -83.868
77.7226     72.971   -88.213
78.8531     73.029   -92.483
80.0000     73.080   -96.649
81.1636     73.133  -100.759
82.3442     73.177  -104.871
83.5419     73.216  -108.913
84.7570     73.250  -112.944
85.9899     73.275  -116.957
87.2406     73.293  -120.989
88.5096     73.310  -125.012
89.7970     73.336  -129.072
91.1031     73.379  -133.121
92.4282     73.447  -137.139
93.7726     73.535  -141.118
95.1366     73.635  -145.060
96.5204     73.733  -149.007
97.9243     73.820  -152.952
99.3486     73.898  -156.905
100.794     73.975  -160.860
102.260     74.056  -164.881
103.747     74.136  -168.886
105.256     74.217  -172.973
106.787     74.282  -177.139
108.340     74.323   178.760
109.916     74.385   174.643
111.515     74.430   170.596
113.137     74.507   166.697
114.783     74.605   162.742
116.452     74.693   158.733
118.146     74.790   154.712
119.865     74.881   150.699
121.608     74.968   146.732
123.377     75.048   142.836
125.171     75.120   138.918
126.992     75.198   134.763
128.839     75.275   130.409
130.713     75.338   125.914
132.615     75.361   121.525
134.543     75.365   117.442
136.500     75.401   113.485
138.486     75.440   109.545
140.500     75.388   105.345
142.544     75.288   101.469
144.617     75.249    98.166
146.721     75.219    94.944
148.855     75.215    91.599
151.020     75.199    88.311
153.217     75.179    85.217
155.445     75.159    82.168
157.706     75.148    79.452
160.000     75.168    76.622
162.327     75.201    73.734
164.688     75.240    71.008
167.084     75.267    68.093
169.514     75.288    65.058
171.980     75.265    61.680
174.481     75.151    59.022
177.019     75.117    57.212
179.594     75.149    54.895
182.206     75.156    52.123
184.856     75.148    49.875
187.545     75.173    48.025
190.273     75.180    45.594
193.041     75.105    42.738
195.849     75.049    40.646
198.697     75.055    38.693
201.587     75.023    36.780
204.520     74.959    35.126
207.494     74.955    33.431
210.512     74.940    31.613
213.574     74.889    30.179
216.681     74.872    28.833
219.833     74.875    27.154
223.030     74.872    25.793
226.274     74.900    24.369
229.565     74.889    22.780
232.905     74.883    21.318
236.292     74.849    20.073
239.729     74.834    19.048
243.216     74.813    17.707
246.754     74.770    16.125
250.343     74.608    15.267
253.984     74.602    15.260
257.678     74.679    14.575
261.426     74.754    13.475
265.229     74.748    12.074
269.087     74.671    11.223
273.001     74.676    10.382
276.972     74.612     9.797
281.000     74.621    10.175
285.088     74.766     9.421
289.234     74.813     8.270
293.441     74.876     7.115
297.709     74.819     5.774
302.040     74.745     4.703
306.433     74.705     3.976
310.890     74.708     2.933
315.412     74.581     2.641
320.000     74.606     1.706
324.655     74.460     0.686
329.377     74.296     0.472
334.168     74.192     1.388
339.028     74.280     1.297
343.959     74.289     0.374
348.962     74.271    -0.379
354.038     74.175    -0.987
359.188     74.137    -0.901
364.412     74.086    -2.087
369.713     74.003    -1.847
375.090     74.016    -2.914
380.546     73.751    -3.543
386.081     73.650    -3.543
391.697     73.466    -3.369
397.394     73.472    -3.154
403.175     73.422    -3.822
409.039     73.269    -3.606
414.989     73.228    -3.665
421.025     73.160    -3.964
427.149     73.013    -3.695
433.362     73.145    -3.608
439.665     73.110    -4.837
446.060     73.016    -5.927
452.548     72.857    -7.025
459.131     72.578    -6.833
465.809     72.556    -7.274
472.584     72.361    -7.384
479.458     72.395    -7.555
486.432     72.222    -9.066
493.507     72.027    -8.812
500.686     72.102    -9.046
507.968     72.058   -10.191
515.357     71.962   -10.836
522.853     71.996   -11.375
530.458     72.022   -12.557
538.174     71.984   -14.220
546.002     71.825   -15.265
553.943     71.738   -15.967
562.001     71.685   -16.723
570.175     71.575   -17.119
578.469     71.510   -17.674
586.883     71.432   -18.251
595.419     71.320   -18.771
604.080     71.227   -19.026
612.866     71.131   -19.344
621.780     71.055   -19.632
630.824     71.002   -20.016
640.000     70.930   -20.331
649.309     70.878   -20.818
658.753     70.828   -21.245
668.335     70.763   -21.674
678.056     70.693   -22.137
687.919     70.613   -22.574
697.925     70.528   -22.979
708.077     70.429   -23.219
718.376     70.319   -23.410
728.825     70.207   -23.434
739.426     70.096   -23.276
750.181     69.987   -22.961
761.093     69.904   -22.504
772.163     69.859   -21.848
783.394     69.837   -21.003
794.789     69.841   -20.176
806.349     69.893   -19.430
818.078     69.987   -18.747
829.977     70.099   -18.263
842.050     70.247   -17.955
854.298     70.392   -17.861
866.724     70.545   -17.953
879.330     70.698   -18.227
892.120     70.839   -18.550
905.097     70.963   -18.977
918.262     71.081   -19.426
931.618     71.205   -19.802
945.169     71.325   -20.157
958.917     71.460   -20.436
972.864     71.621   -20.753
987.015     71.807   -21.142
1001.37     72.022   -21.672
1015.94     72.262   -22.452
1030.71     72.516   -23.475
1045.71     72.767   -24.834
1060.92     73.012   -26.567
1076.35     73.224   -28.564
1092.00     73.401   -30.794
1107.89     73.536   -33.206
1124.00     73.613   -35.670
1140.35     73.651   -38.176
1156.94     73.640   -40.556
1173.77     73.601   -42.777
1190.84     73.537   -44.782
1208.16     73.467   -46.580
1225.73     73.404   -48.179
1243.56     73.353   -49.684
1261.65     73.326   -51.123
1280.00     73.310   -52.596
1298.62     73.304   -54.134
1317.51     73.302   -55.755
1336.67     73.278   -57.465
1356.11     73.253   -59.188
1375.84     73.221   -60.828
1395.85     73.178   -62.430
1416.15     73.145   -63.913
1436.75     73.129   -65.425
1457.65     73.131   -66.978
1478.85     73.146   -68.699
1500.36     73.160   -70.606
1522.19     73.159   -72.680
1544.33     73.118   -74.874
1566.79     73.047   -77.043
1589.58     72.933   -79.054
1612.70     72.810   -80.804
1636.16     72.699   -82.296
1659.95     72.621   -83.600
1684.10     72.586   -84.912
1708.60     72.586   -86.397
1733.45     72.596   -88.181
1758.66     72.595   -90.264
1784.24     72.554   -92.494
1810.19     72.468   -94.659
1836.52     72.346   -96.721
1863.24     72.219   -98.570
1890.34     72.101  -100.244
1917.83     72.000  -101.936
1945.73     71.900  -103.675
1974.03     71.773  -105.484
2002.74     71.604  -107.218
2031.87     71.405  -108.623
2061.43     71.196  -109.552
2091.41     71.024  -110.033
2121.83     70.923  -110.265
2152.69     70.893  -110.475
2184.01     70.909  -110.821
2215.77     70.961  -111.360
2248.00     71.036  -111.964
2280.70     71.138  -112.750
2313.87     71.265  -113.907
2347.53     71.370  -115.398
2381.68     71.401  -117.067
2416.32     71.359  -118.408
2451.46     71.295  -118.898
2487.12     71.329  -118.526
2523.30     71.557  -117.961
2560.00     71.959  -118.111
2597.24     72.410  -119.459
2635.01     72.813  -121.715
2673.34     73.134  -124.384
2712.23     73.410  -127.175
2751.68     73.673  -130.210
2791.70     73.905  -133.696
2832.31     74.034  -137.508
2873.50     74.039  -141.225
2915.30     73.964  -144.307
2957.70     73.904  -146.710
3000.72     73.904  -148.961
3044.37     73.922  -151.548
3088.65     73.871  -154.329
3133.58     73.738  -156.710
3179.16     73.595  -158.367
3225.40     73.526  -159.612
3272.31     73.511  -160.967
3319.91     73.480  -162.515
3368.20     73.414  -163.851
3417.19     73.347  -164.716
3466.89     73.322  -165.248
3517.32     73.344  -165.491
3568.48     73.434  -165.491
3620.39     73.627  -165.499
3673.05     73.895  -165.901
3726.47     74.176  -166.696
3780.67     74.474  -167.573
3835.67     74.837  -168.691
3891.46     75.241  -170.447
3948.06     75.603  -172.739
4005.49     75.935  -175.106
4063.75     76.316  -177.684
4122.86     76.736   178.821
4182.82     77.070   174.079
4243.66     77.189   168.469
4305.39     77.033   162.913
4368.01     76.626   158.527
4431.55     76.136   156.077
4496.01     75.757   155.111
4561.40     75.510   154.570
4627.75     75.330   154.351
4695.06     75.267   154.378
4763.35     75.288   153.969
4832.64     75.288   153.420
4902.93     75.349   153.160
4974.24     75.502   152.356
5046.60     75.599   150.970
5120.00     75.678   149.784
5194.47     75.801   148.180
5270.03     75.838   145.999
5346.68     75.777   144.096
5424.45     75.692   142.449
5503.35     75.570   141.065
5583.40     75.453   140.082
5664.61     75.350   139.207
5747.01     75.255   138.516
5830.60     75.193   137.862
5915.41     75.140   137.100
6001.45     75.091   136.004
6088.74     74.927   134.586
6177.30     74.654   133.832
6267.15     74.358   133.837
6358.31     74.069   134.838
6450.80     73.935   136.649
6544.62     73.969   138.244
6639.82     74.075   139.026
6736.40     74.140   139.346
6834.38     74.173   139.427
6933.79     74.108   139.839
7034.64     74.148   141.120
7136.96     74.353   141.709
7240.77     74.516   140.895
7346.09     74.465   139.942
7452.94     74.383   139.710
7561.35     74.290   139.469
7671.33     74.130   139.081
7782.91     73.817   139.417
7896.12     73.527   141.066
8010.97     73.383   143.577
8127.49     73.344   145.384
8245.71     73.196   146.857
8365.65     72.887   149.070
8487.33     72.677   152.481
8610.78     72.459   155.939
8736.03     72.196   160.737
8863.09     72.301   168.751
8992.01     73.272   175.222
9122.80     74.596   176.205
9255.50     75.605   172.229
9390.12     76.009   166.191
9526.70     75.966   161.087
9665.27     75.694   157.067
9805.86     75.306   154.833
9948.49     75.036   153.878
10093.2     74.837   153.442
10240.0     74.794   153.040
10388.9     74.642   152.134
10540.1     74.475   151.735
10693.4     74.197   151.592
10848.9     74.036   152.886
11006.7     74.034   153.147
11166.8     73.933   152.513
11329.2     73.624   151.707
11494.0     73.141   152.493
11661.2     72.780   154.917
11830.8     72.645   157.487
12002.9     72.548   159.015
12177.5     72.393   160.816
12354.6     72.265   162.323
12534.3     72.004   164.324
12716.6     71.846   167.044
12901.6     71.746   170.147
13089.2     71.785   173.008
13279.6     71.925   175.325
13472.8     72.015   176.482
13668.8     72.021   176.845
13867.6     71.727   177.600
14069.3     71.392   179.716
14273.9     71.180  -176.732
14481.5     71.062  -173.842
14692.2     70.921  -170.591
14905.9     70.811  -166.660
15122.7     70.778  -162.429
15342.7     71.020  -157.120
15565.8     71.586  -153.745
15792.2     72.135  -153.924
16021.9     72.184  -155.150
16255.0     71.905  -154.605
16491.4     71.769  -152.445
16731.3     71.688  -150.402
16974.7     71.686  -147.668
17221.6     71.840  -146.383
17472.1     71.802  -146.594
17726.2     71.360  -145.943
17984.0     70.880  -141.994
18245.6     70.901  -136.309
18511.0     71.372  -133.038
18780.2     71.783  -132.709
19053.4     71.917  -133.586
19330.5     71.864  -134.271
19611.7     71.782  -135.448
19897.0     71.502  -136.805
20186.4     71.085  -138.633
20480.0     70.096  -140.436
20777.9     69.041  -136.425
21080.1     68.647  -130.842
21386.7     68.384  -128.217
21697.8     68.163  -125.815
22013.4     67.894  -124.109
22333.6     67.605  -122.913
22658.4     67.282  -123.038
22988.0     66.617  -124.237
23322.4     65.623  -123.644
23661.6     64.686  -121.688
24005.8     63.759  -119.972
24355.0     62.585  -117.522
24709.2     61.442  -113.311
25068.6     60.384  -108.330
25433.2     59.437  -103.191
25803.2     58.588   -98.454
26178.5     57.753   -94.833
26559.3     56.535   -91.124
26945.6     55.233   -85.447
27337.5     53.976   -78.096
27735.2     52.585   -70.157
28138.6     50.984   -57.054
28547.9     50.451   -40.383
28963.1     50.425   -28.842
29384.4     50.022   -19.878
29811.8     49.160    -8.011
30245.4     48.711     7.842
30685.3     49.073    21.708
31131.7     48.901    31.708
31584.5     48.989    44.658
32043.9     49.242    57.190
32510.0     49.977    66.343
32982.8     50.383    72.009
33462.6     50.635    77.453
33949.3     50.535    81.562
34443.1     50.422    87.220
34944.1     50.322    91.883
35452.4     49.998    94.350
35968.0     49.247    97.380
36491.2     48.348   101.288
37022.0     47.219   105.706
37560.5     45.863   111.411
38106.8     44.254   118.930
38661.1     42.701   128.960
39223.4     41.014   142.263
39793.9     39.930   159.700
