Freq[Hz]     dBSPL  Phase[Deg]
5.00000    -10.113    -3.279
5.07273    -10.028    -1.168
5.14651     -9.962     1.079
5.22137     -9.952     3.711
5.29732     -9.941     6.343
5.37437     -9.931     8.975
5.45254     -9.920    11.607
5.53185     -9.895    14.739
5.61231     -9.855    18.399
5.69394     -9.815    22.059
5.77676     -9.775    25.719
5.86079     -9.732    29.385
5.94604     -9.538    33.371
6.03252     -9.344    37.358
6.12027     -9.150    41.344
6.20929     -8.956    45.330
6.29961     -8.716    48.703
6.39124     -8.465    51.939
6.48420     -8.214    55.175
6.57851     -7.963    58.411
6.67420     -7.819    61.420
6.77128     -7.692    64.392
6.86977     -7.565    67.365
6.96969     -7.453    70.474
7.07107     -7.453    74.628
7.17392     -7.452    78.781
7.27827     -7.452    82.935
7.38413     -7.359    88.117
7.49154     -7.195    94.093
7.60050     -7.030   100.070
7.71105     -6.804   105.953
7.82321     -6.308   111.427
7.93701     -5.813   116.901
8.05245     -5.317   122.375
8.16958     -4.849   125.917
8.28841     -4.382   129.387
8.40896     -3.914   132.857
8.53128     -3.789   136.394
8.65537     -3.707   139.941
8.78126     -3.625   143.487
8.90899     -3.772   151.737
9.03857     -3.935   160.296
9.17004     -3.951   169.375
9.30342     -2.804  -177.407
9.43874     -1.657  -164.189
9.57603     -0.138  -154.142
9.71532      1.948  -148.940
9.85663      4.035  -143.739
10.0000      5.827  -143.199
10.1455      7.537  -143.958
10.2930      9.124  -145.407
10.4427     10.370  -148.782
10.5946     11.615  -152.157
10.7487     12.567  -156.688
10.9051     13.461  -161.448
11.0637     14.206  -166.646
11.2246     14.791  -172.306
11.3879     15.314  -178.116
11.5535     15.608   175.532
11.7216     15.897   169.168
11.8921     15.894   162.200
12.0650     15.890   155.231
12.2405     15.604   147.700
12.4186     15.282   140.095
12.5992     14.660   131.790
12.7825     13.973   123.328
12.9684     12.940   113.674
13.1570     11.826   103.742
13.3484     10.319    91.071
13.5426      8.749    77.955
13.7395      7.124    58.210
13.9394      5.664    37.598
14.1421      5.476    12.334
14.3478      5.738   -10.592
14.5565      6.968   -28.487
14.7683      8.259   -41.965
14.9831      9.597   -52.030
15.2010     10.757   -58.984
15.4221     11.843   -65.138
15.6464     12.741   -70.118
15.8740     13.482   -74.669
16.1049     14.100   -78.879
16.3392     14.411   -81.883
16.5768     14.613   -83.760
16.8179     14.675   -84.064
17.0626     14.859   -80.861
17.3107     15.346   -76.441
17.5625     16.269   -70.859
17.8180     17.819   -68.170
18.0771     19.441   -68.011
18.3401     21.060   -70.431
18.6068     22.402   -75.546
18.8775     23.423   -81.561
19.1521     24.154   -87.720
19.4306     24.585   -93.448
19.7133     24.673   -97.134
20.0000     24.686   -97.677
20.2909     24.922   -95.342
20.5860     25.609   -91.147
20.8855     26.917   -87.257
21.1893     28.639   -87.161
21.4975     30.289   -90.183
21.8102     31.724   -95.153
22.1274     32.892  -101.092
22.4492     33.799  -107.094
22.7758     34.502  -112.423
23.1071     35.098  -116.592
23.4432     35.720  -119.519
23.7841     36.488  -121.709
24.1301     37.412  -124.104
24.4811     38.418  -127.268
24.8372     39.407  -131.276
25.1984     40.312  -135.840
25.5649     41.108  -140.523
25.9368     41.811  -144.934
26.3141     42.465  -148.847
26.6968     43.121  -152.257
27.0851     43.814  -155.338
27.4791     44.562  -158.350
27.8788     45.356  -161.540
28.2843     46.170  -165.043
28.6957     46.980  -168.900
29.1131     47.767  -173.073
29.5365     48.514  -177.461
29.9661     49.221   178.064
30.4020     49.895   173.617
30.8442     50.550   169.250
31.2929     51.202   164.912
31.7480     51.849   160.540
32.2098     52.483   156.114
32.6783     53.089   151.685
33.1536     53.669   147.339
33.6359     54.230   143.113
34.1251     54.778   138.998
34.6215     55.312   134.937
35.1250     55.829   130.892
35.6359     56.321   126.859
36.1543     56.788   122.844
36.6802     57.232   118.847
37.2137     57.656   114.875
37.7550     58.066   110.927
38.3041     58.468   106.985
38.8613     58.869   103.006
39.4265     59.267    98.961
40.0000     59.657    94.881
40.5818     60.043    90.817
41.1721     60.432    86.796
41.7710     60.823    82.811
42.3785     61.211    78.887
42.9949     61.596    75.083
43.6203     61.986    71.413
44.2548     62.390    67.814
44.8985     62.797    64.174
45.5515     63.193    60.481
46.2141     63.572    56.792
46.8863     63.943    53.137
47.5683     64.315    49.442
48.2602     64.680    45.637
48.9621     65.032    41.763
49.6743     65.379    37.872
50.3968     65.734    33.911
51.1299     66.094    29.807
51.8736     66.446    25.595
52.6281     66.800    21.337
53.3936     67.161    17.029
54.1702     67.525    12.673
54.9581     67.889     8.293
55.7575     68.247     3.887
56.5685     68.584    -0.493
57.3914     68.899    -4.804
58.2261     69.183    -9.085
59.0730     69.424   -13.287
59.9323     69.651   -17.430
60.8040     69.868   -21.787
61.6884     70.046   -26.328
62.5857     70.233   -30.840
63.4960     70.467   -35.741
64.4196     70.673   -41.061
65.3566     70.851   -46.159
66.3073     71.059   -51.071
67.2717     71.254   -55.973
68.2502     71.418   -60.611
69.2429     71.565   -65.122
70.2501     71.670   -69.626
71.2719     71.743   -74.119
72.3086     71.798   -78.721
73.3603     71.845   -83.444
74.4274     71.886   -88.293
75.5099     71.917   -93.084
76.6083     71.951   -97.734
77.7226     71.980  -102.295
78.8531     71.993  -106.761
80.0000     71.992  -111.146
81.1636     71.991  -115.533
82.3442     71.987  -119.988
83.5419     71.991  -124.406
84.7570     72.005  -128.782
85.9899     72.020  -133.055
87.2406     72.029  -137.230
88.5096     72.027  -141.301
89.7970     72.021  -145.368
91.1031     72.014  -149.453
92.4282     72.026  -153.578
93.7726     72.058  -157.740
95.1366     72.109  -161.910
96.5204     72.165  -166.088
97.9243     72.216  -170.238
99.3486     72.256  -174.368
100.794     72.296  -178.481
102.260     72.334   177.340
103.747     72.371   173.164
105.256     72.410   168.891
106.787     72.434   164.530
108.340     72.436   160.233
109.916     72.459   155.927
111.515     72.468   151.697
113.137     72.507   147.614
114.783     72.567   143.468
116.452     72.620   139.263
118.146     72.686   135.050
119.865     72.747   130.872
121.608     72.802   126.770
123.377     72.844   122.753
125.171     72.873   118.688
126.992     72.907   114.329
128.839     72.948   109.718
130.713     72.986   104.970
132.615     72.990   100.394
134.543     72.970    96.199
136.500     72.970    92.131
138.486     72.971    88.031
140.500     72.885    83.592
142.544     72.759    79.465
144.617     72.700    75.987
146.721     72.644    72.608
148.855     72.611    69.062
151.020     72.573    65.562
153.217     72.531    62.288
155.445     72.486    59.061
157.706     72.450    56.130
160.000     72.450    53.055
162.327     72.466    49.959
164.688     72.483    47.036
167.084     72.490    43.847
169.514     72.502    40.507
171.980     72.478    36.900
174.481     72.357    34.074
177.019     72.311    32.078
179.594     72.330    29.524
182.206     72.327    26.455
184.856     72.321    23.905
187.545     72.356    21.860
190.273     72.361    19.299
193.041     72.269    16.249
195.849     72.202    13.862
198.697     72.206    11.601
201.587     72.171     9.383
204.520     72.108     7.386
207.494     72.113     5.378
210.512     72.101     3.238
213.574     72.057     1.407
216.681     72.060    -0.291
219.833     72.081    -2.248
223.030     72.082    -3.949
226.274     72.120    -5.808
229.565     72.128    -7.841
232.905     72.145    -9.748
236.292     72.141   -11.421
239.729     72.158   -12.848
243.216     72.159   -14.565
246.754     72.128   -16.612
250.343     71.991   -18.044
253.984     72.011   -18.602
257.678     72.118   -19.941
261.426     72.246   -21.639
265.229     72.265   -23.576
269.087     72.220   -25.150
273.001     72.261   -26.607
276.972     72.210   -27.993
281.000     72.275   -28.567
285.088     72.476   -30.095
289.234     72.553   -32.104
293.441     72.653   -34.328
297.709     72.667   -36.651
302.040     72.624   -38.503
306.433     72.583   -40.364
310.890     72.616   -42.887
315.412     72.561   -44.422
320.000     72.583   -46.435
324.655     72.429   -48.971
329.377     72.259   -50.660
334.168     72.141   -51.536
339.028     72.217   -53.350
343.959     72.191   -56.016
348.962     72.110   -58.476
354.038     71.925   -60.926
359.188     71.779   -62.676
364.412     71.581   -65.813
369.713     71.329   -67.390
375.090     71.151   -70.292
380.546     70.664   -72.494
386.081     70.305   -73.925
391.697     69.828   -75.015
397.394     69.522   -75.933
403.175     69.183   -77.281
409.039     68.696   -77.483
414.989     68.344   -77.853
421.025     68.000   -78.096
427.149     67.610   -77.444
433.362     67.522   -76.739
439.665     67.272   -77.193
446.060     67.016   -77.592
452.548     66.738   -78.041
459.131     66.394   -77.183
465.809     66.321   -76.958
472.584     66.113   -76.730
479.458     66.138   -76.721
486.432     66.017   -78.322
493.507     65.862   -78.159
500.686     65.984   -78.820
507.968     65.975   -80.608
515.357     65.925   -82.026
522.853     65.969   -83.506
530.458     65.986   -85.863
538.174     65.921   -88.875
546.002     65.683   -91.189
553.943     65.497   -93.465
562.001     65.286   -95.514
570.175     64.920   -97.387
578.469     64.596   -99.259
586.883     64.168  -100.984
595.419     63.651  -101.774
604.080     63.082  -102.167
612.866     62.475  -101.598
621.780     61.912  -100.085
630.824     61.375   -97.096
640.000     60.966   -93.291
649.309     60.848   -88.513
658.753     60.929   -83.227
668.335     61.324   -78.478
678.056     61.928   -74.799
687.919     62.671   -72.540
697.925     63.484   -71.801
708.077     64.295   -71.994
718.376     65.033   -73.453
728.825     65.734   -75.749
739.426     66.362   -78.718
750.181     66.906   -82.227
761.093     67.374   -86.197
772.163     67.759   -90.400
783.394     68.059   -94.831
794.789     68.302   -99.503
806.349     68.439  -104.089
818.078     68.512  -108.783
829.977     68.513  -113.423
842.050     68.458  -117.822
854.298     68.312  -121.969
866.724     68.122  -125.819
879.330     67.882  -129.268
892.120     67.615  -132.292
905.097     67.333  -134.685
918.262     67.079  -136.573
931.618     66.889  -137.916
945.169     66.772  -138.838
958.917     66.759  -139.688
972.864     66.863  -140.660
987.015     67.061  -141.983
1001.37     67.327  -143.997
1015.94     67.614  -146.741
1030.71     67.909  -150.184
1045.71     68.180  -154.418
1060.92     68.384  -159.240
1076.35     68.527  -164.566
1092.00     68.577  -170.209
1107.89     68.530  -176.217
1124.00     68.375   177.664
1140.35     68.130   171.442
1156.94     67.764   165.494
1173.77     67.302   159.674
1190.84     66.742   154.494
1208.16     66.097   149.856
1225.73     65.424   145.976
1243.56     64.742   143.029
1261.65     64.126   140.952
1280.00     63.637   139.441
1298.62     63.301   138.093
1317.51     63.110   136.318
1336.67     63.010   133.620
1356.11     62.961   129.768
1375.84     62.862   124.812
1395.85     62.689   118.936
1416.15     62.378   112.414
1436.75     61.923   105.403
1457.65     61.306    97.898
1478.85     60.572    90.566
1500.36     59.696    83.431
1522.19     58.731    76.488
1544.33     57.705    69.795
1566.79     56.708    62.877
1589.58     55.745    55.624
1612.70     54.839    46.952
1636.16     53.965    36.690
1659.95     53.131    24.279
1684.10     52.289     9.549
1708.60     51.510    -6.916
1733.45     50.850   -24.520
1758.66     50.387   -41.511
1784.24     50.053   -56.307
1810.19     49.931   -67.647
1836.52     50.040   -75.739
1863.24     50.615   -81.256
1890.34     51.593   -86.449
1917.83     52.770   -92.815
1945.73     53.906  -101.093
1974.03     54.761  -110.995
2002.74     55.286  -121.783
2031.87     55.371  -132.477
2061.43     54.981  -142.684
2091.41     54.157  -151.308
2121.83     52.912  -157.350
2152.69     51.479  -159.250
2184.01     50.203  -157.408
2215.77     49.354  -153.425
2248.00     48.663  -151.043
2280.70     47.557  -150.231
2313.87     45.148  -145.790
2347.53     41.755  -119.914
2381.68     43.758   -73.634
2416.32     49.207   -59.179
2451.46     53.159   -62.535
2487.12     55.761   -70.784
2523.30     57.441   -80.577
2560.00     58.420   -89.955
2597.24     58.843   -97.950
2635.01     58.915  -103.637
2673.34     58.867  -106.509
2712.23     58.985  -107.315
2751.68     59.380  -107.570
2791.70     59.911  -108.782
2832.31     60.410  -111.034
2873.50     60.786  -113.724
2915.30     61.060  -116.275
2957.70     61.297  -118.611
3000.72     61.492  -120.849
3044.37     61.655  -123.039
3088.65     61.734  -124.902
3133.58     61.769  -126.418
3179.16     61.817  -127.449
3225.40     61.883  -128.281
3272.31     61.938  -128.833
3319.91     61.988  -128.925
3368.20     62.130  -128.302
3417.19     62.430  -127.627
3466.89     62.887  -127.890
3517.32     63.352  -129.667
3568.48     63.652  -132.520
3620.39     63.741  -135.354
3673.05     63.717  -137.447
3726.47     63.714  -138.785
3780.67     63.739  -140.314
3835.67     63.716  -142.129
3891.46     63.573  -143.543
3948.06     63.417  -144.171
4005.49     63.360  -144.464
4063.75     63.360  -145.332
4122.86     63.258  -146.981
4182.82     62.908  -148.438
4243.66     62.383  -147.984
4305.39     62.072  -144.931
4368.01     62.206  -142.098
4431.55     62.479  -141.803
4496.01     62.515  -142.886
4561.40     62.336  -143.833
4627.75     62.003  -144.065
4695.06     61.585  -142.886
4763.35     61.305  -140.614
4832.64     61.033  -138.827
4902.93     60.592  -135.379
4974.24     60.491  -129.114
5046.60     60.912  -124.261
5120.00     61.357  -121.032
5194.47     61.994  -118.304
5270.03     62.778  -118.530
5346.68     63.286  -121.230
5424.45     63.444  -124.912
5503.35     63.212  -128.458
5583.40     62.740  -130.435
5664.61     62.107  -131.465
5747.01     61.238  -129.853
5830.60     60.705  -124.995
5915.41     60.541  -120.602
6001.45     60.553  -116.403
6088.74     60.760  -114.599
6177.30     60.655  -113.755
6267.15     60.486  -112.504
6358.31     60.124  -111.151
6450.80     59.732  -107.888
6544.62     59.449  -104.056
6639.82     59.437   -99.538
6736.40     59.523   -97.058
6834.38     59.636   -94.962
6933.79     59.594   -96.621
7034.64     58.761   -97.282
7136.96     57.691   -95.031
7240.77     56.465   -88.333
7346.09     55.632   -77.851
7452.94     55.711   -64.482
7561.35     56.428   -56.606
7671.33     57.145   -51.362
7782.91     57.523   -49.976
7896.12     57.567   -47.223
8010.97     57.418   -44.170
8127.49     57.363   -39.798
8245.71     57.323   -34.837
8365.65     57.471   -31.933
8487.33     57.340   -29.734
8610.78     56.920   -28.398
8736.03     56.457   -26.334
8863.09     55.591   -25.679
8992.01     54.125   -23.901
9122.80     52.242   -15.821
9255.50     50.481    -1.097
9390.12     50.104    19.735
9526.70     51.538    36.090
9665.27     52.857    40.119
9805.86     53.094    42.078
9948.49     53.162    47.669
10093.2     53.490    53.523
10240.0     53.913    57.662
10388.9     54.079    57.978
10540.1     53.384    60.279
10693.4     52.593    65.978
10848.9     51.469    74.842
11006.7     51.041    89.976
11166.8     51.701   103.981
11329.2     52.666   112.137
11494.0     53.107   117.949
11661.2     53.457   124.654
11830.8     53.994   131.869
12002.9     54.729   135.609
12177.5     54.976   137.858
12354.6     54.950   140.149
12534.3     54.719   143.131
12716.6     54.253   146.127
12901.6     53.618   151.461
13089.2     53.250   156.897
13279.6     52.573   161.416
13472.8     51.588   167.376
13668.8     50.655   176.219
13867.6     49.817  -174.292
14069.3     48.961  -162.738
14273.9     48.657  -150.656
14481.5     48.480  -142.370
14692.2     47.835  -136.475
14905.9     46.295  -129.735
15122.7     44.321  -115.489
15342.7     42.965   -96.621
15565.8     41.858   -72.568
15792.2     42.719   -47.900
16021.9     43.883   -32.867
16255.0     44.403   -22.562
16491.4     44.289   -10.447
16731.3     44.185     5.489
16974.7     44.817    22.794
17221.6     46.046    34.407
17472.1     46.778    41.271
17726.2     46.808    46.254
17984.0     46.141    53.438
18245.6     45.338    66.003
18511.0     44.702    81.721
18780.2     45.288    99.711
19053.4     46.227   110.147
19330.5     46.652   115.928
19611.7     46.438   123.039
19897.0     46.097   130.761
20186.4     45.756   138.429
20480.0     45.067   145.613
20777.9     44.081   155.561
21080.1     43.437   168.265
21386.7     43.096   178.052
21697.8     42.717  -174.114
22013.4     42.200  -168.258
22333.6     41.017  -162.385
22658.4     40.384  -156.094
22988.0     39.248  -156.295
23322.4     36.794  -158.797
23661.6     33.414  -159.682
24005.8     29.891    34.801
24355.0     26.012  -152.426
24709.2     22.866  -134.672
25068.6     24.582  -144.810
25433.2     24.454  -155.664
25803.2     25.975  -153.228
26178.5     26.594  -148.798
26559.3     27.113  -134.209
26945.6     28.821  -118.156
27337.5     30.526   -98.477
27735.2     34.153   -78.787
28138.6     37.781   -91.436
28547.9     36.482  -110.154
28963.1     32.157  -111.553
29384.4     26.538   -80.693
29811.8     24.401   -64.897
30245.4     19.925  -106.356
30685.3     16.640    84.898
31131.7     24.302   135.988
31584.5     29.880   141.606
32043.9     30.825   137.623
32510.0     27.036   151.029
32982.8     28.267  -168.787
33462.6     29.992  -146.145
33949.3     29.950  -136.339
34443.1     27.060  -115.423
34944.1     26.278   -72.826
35452.4     27.124   -47.175
35968.0     28.449   -20.683
36491.2     28.267   -19.041
37022.0     23.873     0.926
37560.5     20.315    22.765
38106.8     19.415  -145.352
38661.1     18.350  -140.928
39223.4     18.108   166.468
39793.9     19.294   -70.256
