Freq[Hz]     dBSPL  Phase[Deg]
5.00000     -3.081    46.282
5.07273     -2.625    47.995
5.14651     -2.274    49.233
5.22137     -2.215    49.146
5.29732     -2.156    49.058
5.37437     -2.098    48.971
5.45254     -2.039    48.884
5.53185     -2.298    49.167
5.61231     -2.892    49.843
5.69394     -3.487    50.519
5.77676     -4.081    51.194
5.86079     -4.684    52.030
5.94604     -5.777    62.297
6.03252     -6.870    72.563
6.12027     -7.964    82.830
6.20929     -9.057    93.096
6.29961     -8.114   104.227
6.39124     -6.720   115.548
6.48420     -5.326   126.870
6.57851     -3.932   138.192
6.67420     -2.864   139.468
6.77128     -1.849   139.112
6.86977     -0.834   138.757
6.96969      0.069   138.082
7.07107      0.123   134.981
7.17392      0.177   131.880
7.27827      0.231   128.779
7.38413     -0.519   125.328
7.49154     -1.892   121.607
7.60050     -3.265   117.886
7.71105     -4.962   123.020
7.82321     -8.087   167.043
7.93701    -11.211  -148.933
8.05245    -14.335  -104.909
8.16958     -9.857  -104.830
8.28841     -5.094  -106.393
8.40896     -0.331  -107.956
8.53128      1.197  -114.207
8.65537      2.307  -121.064
8.78126      3.418  -127.920
8.90899      2.900  -139.191
9.03857      2.276  -150.751
9.17004      1.671  -165.210
9.30342      1.210   157.258
9.43874      0.749   119.727
9.57603      2.003    88.631
9.71532      5.876    67.369
9.85663      9.749    46.106
10.0000     12.417    34.569
10.1455     14.748    25.741
10.2930     16.842    17.582
10.4427     18.274    11.291
10.5946     19.706     5.000
10.7487     20.705     0.026
10.9051     21.617    -4.685
11.0637     22.366    -8.576
11.2246     22.941   -11.601
11.3879     23.482   -14.229
11.5535     23.899   -15.412
11.7216     24.317   -16.570
11.8921     24.756   -16.337
12.0650     25.195   -16.103
12.2405     25.712   -15.544
12.4186     26.238   -14.944
12.5992     26.771   -14.619
12.7825     27.304   -14.356
12.9684     27.761   -14.173
13.1570     28.200   -14.009
13.3484     28.559   -13.276
13.5426     28.905   -12.451
13.7395     29.291   -10.592
13.9394     29.700    -8.651
14.1421     30.279    -6.387
14.3478     30.910    -4.430
14.5565     31.655    -3.134
14.7683     32.393    -2.676
14.9831     33.125    -2.865
15.2010     33.718    -3.817
15.4221     34.251    -4.864
15.6464     34.621    -5.756
15.8740     34.940    -5.998
16.1049     35.218    -5.719
16.3392     35.609    -4.197
16.5768     36.115    -2.621
16.8179     36.782    -1.034
17.0626     37.609    -0.816
17.3107     38.437    -1.523
17.5625     39.238    -3.373
17.8180     39.836    -6.279
18.0771     40.283    -9.209
18.3401     40.576   -11.945
18.6068     40.688   -13.467
18.8775     40.808   -13.364
19.1521     41.050   -12.075
19.4306     41.502    -9.892
19.7133     42.313    -8.272
20.0000     43.258    -8.374
20.2909     44.185   -10.014
20.5860     44.995   -12.928
20.8855     45.607   -16.570
21.1893     45.951   -19.982
21.4975     46.129   -22.274
21.8102     46.260   -23.076
22.1274     46.479   -22.460
22.4492     46.896   -21.044
22.7758     47.541   -19.844
23.1071     48.321   -19.742
23.4432     49.089   -20.906
23.7841     49.729   -22.853
24.1301     50.232   -24.796
24.4811     50.650   -26.233
24.8372     51.068   -27.035
25.1984     51.555   -27.490
25.5649     52.127   -28.107
25.9368     52.738   -29.265
26.3141     53.325   -30.997
26.6968     53.841   -33.034
27.0851     54.288   -35.006
27.4791     54.700   -36.651
27.8788     55.134   -37.976
28.2843     55.616   -39.227
28.6957     56.137   -40.645
29.1131     56.668   -42.317
29.5365     57.185   -44.153
29.9661     57.680   -45.990
30.4020     58.171   -47.712
30.8442     58.680   -49.323
31.2929     59.209   -50.941
31.7480     59.750   -52.646
32.2098     60.289   -54.430
32.6783     60.817   -56.211
33.1536     61.342   -57.919
33.6359     61.877   -59.571
34.1251     62.427   -61.255
34.6215     62.985   -63.052
35.1250     63.538   -64.956
35.6359     64.080   -66.928
36.1543     64.621   -68.930
36.6802     65.163   -70.980
37.2137     65.706   -73.113
37.7550     66.250   -75.326
38.3041     66.796   -77.626
38.8613     67.342   -80.015
39.4265     67.889   -82.526
40.0000     68.432   -85.132
40.5818     68.971   -87.821
41.1721     69.510   -90.644
41.7710     70.037   -93.650
42.3785     70.528   -96.792
42.9949     70.981   -99.851
43.6203     71.428  -102.720
44.2548     71.900  -105.524
44.8985     72.387  -108.511
45.5515     72.860  -111.690
46.2141     73.315  -114.918
46.8863     73.764  -118.141
47.5683     74.220  -121.486
48.2602     74.662  -125.018
48.9621     75.078  -128.644
49.6743     75.477  -132.296
50.3968     75.861  -136.007
51.1299     76.228  -139.804
51.8736     76.571  -143.656
52.6281     76.891  -147.539
53.3936     77.192  -151.453
54.1702     77.475  -155.385
54.9581     77.737  -159.338
55.7575     77.980  -163.318
56.5685     78.202  -167.306
57.3914     78.397  -171.298
58.2261     78.563  -175.280
59.0730     78.692  -179.147
59.9323     78.798   177.166
60.8040     78.895   173.627
61.6884     78.988   170.181
62.5857     79.077   166.742
63.4960     79.146   163.300
64.4196     79.196   159.954
65.3566     79.244   156.693
66.3073     79.282   153.452
67.2717     79.305   150.302
68.2502     79.318   147.269
69.2429     79.326   144.375
70.2501     79.337   141.652
71.2719     79.357   139.015
72.3086     79.381   136.388
73.3603     79.396   133.761
74.4274     79.396   131.186
75.5099     79.383   128.615
76.6083     79.330   126.162
77.7226     79.276   124.103
78.8531     79.259   122.129
80.0000     79.249   120.225
81.1636     79.275   118.391
82.3442     79.311   116.379
83.5419     79.339   114.352
84.7570     79.358   112.282
85.9899     79.368   110.259
87.2406     79.367   108.252
88.5096     79.362   106.407
89.7970     79.385   104.575
91.1031     79.406   102.523
92.4282     79.391   100.380
93.7726     79.334    98.310
95.1366     79.238    96.592
96.5204     79.169    95.299
97.9243     79.136    94.147
99.3486     79.140    93.088
100.794     79.169    91.987
102.260     79.220    90.789
103.747     79.273    89.449
105.256     79.319    87.971
106.787     79.353    86.413
108.340     79.373    84.755
109.916     79.346    83.181
111.515     79.323    82.037
113.137     79.341    81.026
114.783     79.385    79.937
116.452     79.432    78.744
118.146     79.482    77.486
119.865     79.529    76.232
121.608     79.587    75.032
123.377     79.651    73.786
125.171     79.709    72.468
126.992     79.763    71.068
128.839     79.818    69.589
130.713     79.871    67.969
132.615     79.893    66.359
134.543     79.890    64.937
136.500     79.902    63.657
138.486     79.930    62.445
140.500     79.963    61.023
142.544     80.000    59.266
144.617     79.963    57.582
146.721     79.900    56.635
148.855     79.956    55.866
151.020     80.081    54.328
153.217     80.091    51.891
155.445     79.931    50.124
157.706     79.850    48.892
160.000     79.674    47.552
162.327     79.557    47.516
164.688     79.596    47.139
167.084     79.701    46.852
169.514     79.957    44.419
171.980     79.680    40.972
174.481     79.313    40.706
177.019     79.208    41.280
179.594     79.181    41.149
182.206     79.138    40.969
184.856     79.141    41.355
187.545     79.269    41.421
190.273     79.470    41.044
193.041     79.672    39.689
195.849     79.728    37.969
198.697     79.763    36.487
201.587     79.793    34.843
204.520     79.706    32.912
207.494     79.616    32.023
210.512     79.540    30.950
213.574     79.579    29.352
216.681     79.249    27.910
219.833     79.191    28.381
223.030     79.119    27.268
226.274     78.980    26.661
229.565     78.871    26.585
232.905     78.709    26.179
236.292     78.602    26.992
239.729     78.606    27.680
243.216     78.697    28.215
246.754     78.831    28.020
250.343     78.880    27.158
253.984     78.905    27.559
257.678     79.066    26.634
261.426     79.128    25.772
265.229     79.252    24.323
269.087     79.042    21.943
273.001     78.769    22.339
276.972     78.750    23.226
281.000     78.769    23.610
285.088     78.915    23.461
289.234     79.012    22.527
293.441     78.972    22.221
297.709     79.142    21.015
302.040     79.120    19.698
306.433     78.945    17.532
310.890     78.657    18.183
315.412     78.825    18.059
320.000     78.810    16.743
324.655     78.612    13.777
329.377     78.183    15.049
334.168     78.222    15.446
339.028     78.156    15.742
343.959     78.239    15.847
348.962     78.269    15.126
354.038     78.301    14.627
359.188     78.366    13.962
364.412     78.440    11.789
369.713     78.105     9.902
375.090     77.981    10.247
380.546     78.009    10.298
386.081     78.053    10.020
391.697     78.247     9.447
397.394     78.302     7.927
403.175     78.370     5.775
409.039     78.182     4.217
414.989     78.244     3.461
421.025     78.264     2.205
427.149     78.306     0.777
433.362     78.358    -0.746
439.665     78.408    -2.468
446.060     78.353    -5.224
452.548     78.183    -7.507
459.131     78.069    -9.327
465.809     77.885   -11.221
472.584     77.757   -12.676
479.458     77.568   -14.259
486.432     77.413   -15.130
493.507     77.255   -16.247
500.686     77.068   -17.033
507.968     76.916   -17.356
515.357     76.788   -17.477
522.853     76.692   -17.230
530.458     76.646   -16.694
538.174     76.651   -15.993
546.002     76.701   -15.165
553.943     76.814   -14.260
562.001     76.986   -13.335
570.175     77.202   -12.518
578.469     77.474   -11.993
586.883     77.777   -11.786
595.419     78.098   -11.881
604.080     78.428   -12.358
612.866     78.766   -13.214
621.780     79.098   -14.415
630.824     79.416   -15.953
640.000     79.703   -17.738
649.309     79.961   -19.769
658.753     80.187   -21.997
668.335     80.379   -24.450
678.056     80.526   -26.995
687.919     80.631   -29.653
697.925     80.693   -32.395
708.077     80.710   -35.063
718.376     80.685   -37.739
728.825     80.621   -40.323
739.426     80.518   -42.778
750.181     80.382   -45.026
761.093     80.216   -47.061
772.163     80.035   -48.771
783.394     79.848   -50.185
794.789     79.659   -51.286
806.349     79.493   -52.091
818.078     79.364   -52.609
829.977     79.277   -52.946
842.050     79.241   -53.187
854.298     79.258   -53.489
866.724     79.321   -53.922
879.330     79.423   -54.584
892.120     79.545   -55.552
905.097     79.675   -56.834
918.262     79.799   -58.412
931.618     79.901   -60.238
945.169     79.975   -62.275
958.917     80.017   -64.432
972.864     80.021   -66.625
987.015     79.996   -68.792
1001.37     79.933   -70.855
1015.94     79.849   -72.804
1030.71     79.758   -74.527
1045.71     79.680   -76.140
1060.92     79.608   -77.539
1076.35     79.561   -78.897
1092.00     79.548   -80.274
1107.89     79.567   -81.721
1124.00     79.599   -83.422
1140.35     79.648   -85.373
1156.94     79.693   -87.592
1173.77     79.723   -90.080
1190.84     79.716   -92.830
1208.16     79.664   -95.746
1225.73     79.566   -98.821
1243.56     79.406  -101.964
1261.65     79.190  -105.040
1280.00     78.910  -107.958
1298.62     78.573  -110.638
1317.51     78.179  -112.980
1336.67     77.738  -114.837
1356.11     77.262  -116.098
1375.84     76.784  -116.635
1395.85     76.335  -116.368
1416.15     75.966  -115.339
1436.75     75.724  -113.766
1457.65     75.635  -111.982
1478.85     75.695  -110.426
1500.36     75.873  -109.469
1522.19     76.110  -109.321
1544.33     76.349  -109.907
1566.79     76.551  -111.069
1589.58     76.685  -112.520
1612.70     76.757  -113.994
1636.16     76.790  -115.201
1659.95     76.819  -116.016
1684.10     76.890  -116.465
1708.60     77.042  -116.789
1733.45     77.285  -117.301
1758.66     77.607  -118.261
1784.24     77.954  -119.870
1810.19     78.290  -122.143
1836.52     78.582  -124.961
1863.24     78.807  -128.161
1890.34     78.960  -131.491
1917.83     79.043  -134.810
1945.73     79.070  -137.939
1974.03     79.061  -140.804
2002.74     79.045  -143.338
2031.87     79.054  -145.596
2061.43     79.117  -147.716
2091.41     79.238  -150.023
2121.83     79.399  -152.875
2152.69     79.548  -156.418
2184.01     79.613  -160.680
2215.77     79.532  -165.374
2248.00     79.264  -169.982
2280.70     78.815  -173.817
2313.87     78.246  -176.239
2347.53     77.695  -176.855
2381.68     77.334  -176.055
2416.32     77.237  -174.950
2451.46     77.334  -174.688
2487.12     77.472  -175.538
2523.30     77.539  -177.035
2560.00     77.524  -178.539
2597.24     77.491  -179.646
2635.01     77.507   179.518
2673.34     77.584   178.495
2712.23     77.677   177.007
2751.68     77.723   175.195
2791.70     77.702   173.403
2832.31     77.646   171.970
2873.50     77.603   170.929
2915.30     77.612   170.069
2957.70     77.669   169.107
3000.72     77.751   167.880
3044.37     77.822   166.362
3088.65     77.856   164.664
3133.58     77.839   163.017
3179.16     77.787   161.669
3225.40     77.743   160.698
3272.31     77.744   159.935
3319.91     77.786   159.118
3368.20     77.839   158.183
3417.19     77.890   157.265
3466.89     77.963   156.482
3517.32     78.087   155.671
3568.48     78.251   154.551
3620.39     78.418   152.996
3673.05     78.554   151.132
3726.47     78.652   149.200
3780.67     78.743   147.270
3835.67     78.850   145.150
3891.46     78.946   142.496
3948.06     78.954   139.339
4005.49     78.840   136.085
4063.75     78.634   133.002
4122.86     78.335   129.904
4182.82     77.843   126.912
4243.66     77.087   125.338
4305.39     76.290   126.779
4368.01     75.834   130.546
4431.55     75.771   134.104
4496.01     75.868   136.575
4561.40     76.026   138.469
4627.75     76.248   139.834
4695.06     76.506   140.584
4763.35     76.770   140.703
4832.64     76.982   140.284
4902.93     77.135   139.821
4974.24     77.297   139.425
5046.60     77.466   138.673
5120.00     77.589   137.579
5194.47     77.653   136.339
5270.03     77.640   135.139
5346.68     77.573   134.275
5424.45     77.484   133.720
5503.35     77.375   133.666
5583.40     77.331   134.040
5664.61     77.337   134.215
5747.01     77.329   134.475
5830.60     77.383   134.832
5915.41     77.467   134.824
6001.45     77.556   134.454
6088.74     77.589   133.426
6177.30     77.477   132.431
6267.15     77.294   131.993
6358.31     77.065   131.979
6450.80     76.794   132.665
6544.62     76.542   134.411
6639.82     76.462   136.904
6736.40     76.539   138.988
6834.38     76.668   140.300
6933.79     76.736   141.093
7034.64     76.771   141.914
7136.96     76.733   142.606
7240.77     76.640   144.057
7346.09     76.613   146.079
7452.94     76.651   148.264
7561.35     76.770   150.678
7671.33     77.027   152.434
7782.91     77.195   153.332
7896.12     77.306   154.496
8010.97     77.413   155.784
8127.49     77.464   156.975
8245.71     77.474   159.079
8365.65     77.610   160.929
8487.33     77.676   162.220
8610.78     77.699   163.555
8736.03     77.680   164.645
8863.09     77.558   166.191
8992.01     77.514   168.446
9122.80     77.579   170.635
9255.50     77.780   172.306
9390.12     77.970   172.620
9526.70     78.064   172.617
9665.27     78.086   172.394
9805.86     77.984   172.930
9948.49     78.027   174.628
10093.2     78.207   176.608
10240.0     78.619   178.301
10388.9     79.057   178.598
10540.1     79.434   178.071
10693.4     79.656   176.960
10848.9     79.782   176.313
11006.7     79.824   175.629
11166.8     79.838   175.767
11329.2     79.833   176.095
11494.0     79.875   177.181
11661.2     80.020   178.285
11830.8     80.312   179.018
12002.9     80.607   178.279
12177.5     80.779   176.272
12354.6     80.614   174.013
12534.3     80.190   173.006
12716.6     79.729   175.143
12901.6     79.631   177.809
13089.2     79.706  -179.725
13279.6     79.864  -178.279
13472.8     80.049  -177.769
13668.8     80.115  -177.797
13867.6     80.068  -178.280
14069.3     79.888  -178.106
14273.9     79.661  -176.772
14481.5     79.633  -174.856
14692.2     79.774  -173.701
14905.9     79.842  -174.069
15122.7     79.731  -175.169
15342.7     79.410  -175.600
15565.8     79.030  -174.604
15792.2     78.817  -173.266
16021.9     78.682  -172.740
16255.0     78.400  -173.072
16491.4     77.868  -173.051
16731.3     77.289  -171.366
16974.7     76.863  -168.798
17221.6     76.530  -166.834
17472.1     76.180  -165.139
17726.2     75.618  -164.491
17984.0     74.881  -161.621
18245.6     74.332  -157.584
18511.0     73.885  -153.725
18780.2     73.479  -149.982
19053.4     73.050  -146.447
19330.5     72.581  -142.477
19611.7     72.140  -138.386
19897.0     71.758  -133.844
20186.4     71.332  -130.262
20480.0     70.610  -125.307
20777.9     70.062  -117.340
21080.1     70.117  -109.149
21386.7     70.281  -103.630
21697.8     70.428   -99.398
22013.4     70.465   -95.787
22333.6     70.453   -92.659
22658.4     70.352   -89.753
22988.0     70.149   -86.905
23322.4     69.895   -83.498
23661.6     69.750   -79.982
24005.8     69.577   -77.723
24355.0     69.159   -75.606
24709.2     68.720   -72.039
25068.6     68.392   -68.661
25433.2     67.986   -66.042
25803.2     67.534   -62.775
26178.5     67.252   -59.733
26559.3     66.861   -58.135
26945.6     66.262   -56.017
27337.5     65.641   -53.302
27735.2     64.871   -50.687
28138.6     63.923   -46.410
28547.9     63.002   -41.104
28963.1     61.963   -35.122
29384.4     60.971   -26.837
29811.8     60.110   -19.380
30245.4     58.704   -10.268
30685.3     57.712     4.803
31131.7     57.435    17.951
31584.5     57.118    30.057
32043.9     56.945    42.152
32510.0     57.073    53.110
32982.8     57.075    62.483
33462.6     57.502    71.626
33949.3     57.786    76.368
34443.1     57.688    80.643
34944.1     57.194    83.171
35452.4     56.385    90.968
35968.0     56.263    97.229
36491.2     55.782   100.953
37022.0     54.906   105.272
37560.5     53.917   110.458
38106.8     52.740   116.835
38661.1     51.600   124.548
39223.4     50.332   132.771
39793.9     49.325   143.563
