Freq[Hz]     dBSPL  Phase[Deg]
5.00000     -0.998   106.280
5.07273     -0.542   108.860
5.14651     -0.192   110.982
5.22137     -0.134   111.828
5.29732     -0.077   112.673
5.37437     -0.019   113.519
5.45254      0.038   114.364
5.53185     -0.222   115.612
5.61231     -0.817   117.286
5.69394     -1.413   118.959
5.77676     -2.009   120.633
5.86079     -2.613   122.468
5.94604     -3.709   133.797
6.03252     -4.804   145.127
6.12027     -5.899   156.456
6.20929     -6.994   167.786
6.29961     -6.054  -179.969
6.39124     -4.662  -167.520
6.48420     -3.271  -155.071
6.57851     -1.879  -142.622
6.67420     -0.815  -140.164
6.77128      0.196  -139.328
6.86977      1.207  -138.492
6.96969      2.107  -137.968
7.07107      2.157  -139.815
7.17392      2.206  -141.662
7.27827      2.256  -143.508
7.38413      1.501  -145.669
7.49154      0.123  -148.073
7.60050     -1.256  -150.477
7.71105     -2.959  -144.015
7.82321     -6.089   -98.612
7.93701     -9.219   -53.209
8.05245    -12.349    -7.806
8.16958     -7.878    -6.289
8.28841     -3.122    -6.411
8.40896      1.634    -6.533
8.53128      3.154   -11.290
8.65537      4.257   -16.645
8.78126      5.360   -22.000
8.90899      4.834   -31.713
9.03857      4.201   -41.712
9.17004      3.587   -54.603
9.30342      3.116   -90.514
9.43874      2.646  -126.425
9.57603      3.890  -155.877
9.71532      7.752  -175.460
9.85663     11.614   164.957
10.0000     14.271   155.144
10.1455     16.591   148.052
10.2930     18.674   141.645
10.4427     20.094   137.148
10.5946     21.514   132.651
10.7487     22.500   129.518
10.9051     23.400   126.657
11.0637     24.136   124.643
11.2246     24.698   123.524
11.3879     25.226   122.813
11.5535     25.630   123.591
11.7216     26.035   124.394
11.8921     26.460   126.643
12.0650     26.885   128.892
12.2405     27.389   131.514
12.4186     27.903   134.184
12.5992     28.422   136.622
12.7825     28.944   139.010
12.9684     29.388   141.362
13.1570     29.813   143.705
13.3484     30.161   146.666
13.5426     30.496   149.727
13.7395     30.871   153.876
13.9394     31.271   158.117
14.1421     31.840   162.734
14.3478     32.463   167.063
14.5565     33.201   170.772
14.7683     33.931   173.680
14.9831     34.657   175.970
15.2010     35.245   177.553
15.4221     35.773   179.063
15.6464     36.140  -179.215
15.8740     36.456  -176.802
16.1049     36.731  -173.837
16.3392     37.121  -169.558
16.5768     37.625  -165.190
16.8179     38.291  -160.766
17.0626     39.116  -157.642
17.3107     39.944  -155.404
17.5625     40.742  -154.261
17.8180     41.337  -154.101
18.0771     41.780  -153.922
18.3401     42.067  -153.502
18.6068     42.172  -151.801
18.8775     42.283  -148.421
19.1521     42.514  -143.809
19.4306     42.953  -138.256
19.7133     43.747  -133.204
20.0000     44.672  -129.827
20.2909     45.579  -127.944
20.5860     46.364  -127.293
20.8855     46.948  -127.329
21.1893     47.261  -127.087
21.4975     47.407  -125.688
21.8102     47.504  -122.764
22.1274     47.686  -118.387
22.4492     48.066  -113.176
22.7758     48.673  -108.148
23.1071     49.414  -104.183
23.4432     50.144  -101.449
23.7841     50.748   -99.456
24.1301     51.215   -97.419
24.4811     51.602   -94.829
24.8372     51.989   -91.553
25.1984     52.448   -87.875
25.5649     52.994   -84.296
25.9368     53.582   -81.191
26.3141     54.148   -78.587
26.6968     54.645   -76.210
27.0851     55.072   -73.688
27.4791     55.467   -70.750
27.8788     55.880   -67.405
28.2843     56.339   -63.900
28.6957     56.835   -60.481
29.1131     57.338   -57.236
29.5365     57.823   -54.083
29.9661     58.282   -50.862
30.4020     58.731   -47.466
30.8442     59.194   -43.894
31.2929     59.676   -40.281
31.7480     60.167   -36.708
32.2098     60.654   -33.170
32.6783     61.131   -29.576
33.1536     61.607   -25.856
33.6359     62.094   -22.024
34.1251     62.602   -18.153
34.6215     63.119   -14.311
35.1250     63.635   -10.491
35.6359     64.143    -6.628
36.1543     64.649    -2.688
36.6802     65.155     1.317
37.2137     65.659     5.358
37.7550     66.159     9.419
38.3041     66.651    13.500
38.8613     67.138    17.566
39.4265     67.617    21.581
40.0000     68.084    25.545
40.5818     68.544    29.460
41.1721     69.002    33.261
41.7710     69.448    36.898
42.3785     69.865    40.425
42.9949     70.254    44.078
43.6203     70.647    47.987
44.2548     71.079    52.062
44.8985     71.538    56.089
45.5515     71.994    60.084
46.2141     72.435    64.211
46.8863     72.872    68.532
47.5683     73.311    72.921
48.2602     73.728    77.290
48.9621     74.107    81.705
49.6743     74.457    86.204
50.3968     74.783    90.726
51.1299     75.083    95.222
51.8736     75.357    99.716
52.6281     75.610   104.234
53.3936     75.850   108.795
54.1702     76.077   113.436
54.9581     76.292   118.185
55.7575     76.491   123.058
56.5685     76.671   128.083
57.3914     76.823   133.262
58.2261     76.941   138.596
59.0730     77.017   144.176
59.9323     77.066   150.042
60.8040     77.107   156.153
61.6884     77.144   162.461
62.5857     77.183   168.889
63.4960     77.208   175.460
64.4196     77.221  -177.711
65.3566     77.233  -170.611
66.3073     77.233  -163.309
67.2717     77.214  -155.738
68.2502     77.181  -147.896
69.2429     77.138  -139.779
70.2501     77.094  -131.362
71.2719     77.062  -122.731
72.3086     77.036  -113.946
73.3603     77.004  -105.001
74.4274     76.959   -95.831
75.5099     76.902   -86.480
76.6083     76.802   -76.839
77.7226     76.700   -66.646
78.8531     76.638   -56.214
80.0000     76.584   -45.554
81.1636     76.571   -34.645
82.3442     76.573   -23.712
83.5419     76.569   -12.571
84.7570     76.554    -1.246
85.9899     76.524    10.334
87.2406     76.477    22.118
88.5096     76.421    34.225
89.7970     76.392    46.500
91.1031     76.365    58.715
92.4282     76.306    71.020
93.7726     76.212    83.604
95.1366     76.082    96.769
96.5204     75.982   110.592
97.9243     75.917   124.789
99.3486     75.886   139.305
100.794     75.881   153.997
102.260     75.896   168.807
103.747     75.913  -176.311
105.256     75.925  -161.355
106.787     75.928  -146.258
108.340     75.920  -131.028
109.916     75.870  -115.463
111.515     75.826   -99.204
113.137     75.823   -82.546
114.783     75.845   -65.709
116.452     75.869   -48.733
118.146     75.899   -31.570
119.865     75.929   -14.137
121.608     75.971     3.636
123.377     76.017    21.645
125.171     76.055    39.840
126.992     76.090    58.200
128.839     76.133    76.745
130.713     76.179    95.456
132.615     76.196   114.505
134.543     76.183   134.471
136.500     76.185   155.055
138.486     76.206   173.696
140.500     76.237  -165.884
142.544     76.271  -143.797
144.617     76.229  -123.635
146.721     76.161  -102.773
148.855     76.221   -79.776
151.020     76.356   -57.525
153.217     76.377   -36.129
155.445     76.222   -14.055
157.706     76.143     8.524
160.000     75.973    32.952
162.327     75.864    58.691
164.688     75.905    82.093
167.084     76.013   107.494
169.514     76.285   132.676
171.980     76.036   156.900
174.481     75.690  -177.629
177.019     75.603  -151.361
179.594     75.605  -123.855
182.206     75.603   -94.332
184.856     75.632   -64.161
187.545     75.769   -36.355
190.273     75.980    -7.126
193.041     76.201    21.066
195.849     76.285    48.896
198.697     76.352    78.966
201.587     76.411   108.870
204.520     76.352   138.462
207.494     76.291   169.102
210.512     76.238  -158.504
213.574     76.303  -126.733
216.681     76.011   -96.774
219.833     75.992   -62.857
223.030     75.945   -28.563
226.274     75.824     6.116
229.565     75.742    41.245
232.905     75.615    76.078
236.292     75.533   112.138
239.729     75.557   149.935
243.216     75.676  -172.466
246.754     75.835  -135.578
250.343     75.900   -97.478
253.984     75.944   -58.204
257.678     76.127   -20.280
261.426     76.215    19.628
265.229     76.365    58.983
269.087     76.167    97.442
273.001     75.893   138.666
276.972     75.855  -179.653
281.000     75.840  -136.627
285.088     75.945   -92.228
289.234     75.978   -48.624
293.441     75.865    -4.465
297.709     75.937    38.853
302.040     75.789    81.890
306.433     75.490   126.019
310.890     75.037   174.994
315.412     75.013  -136.824
320.000     74.775   -89.801
324.655     74.327   -44.423
329.377     73.633     5.293
334.168     73.329    58.283
339.028     72.871   111.001
343.959     72.571   163.856
348.962     72.146  -143.832
354.038     71.699   -91.100
359.188     71.224   -36.164
364.412     70.694    19.678
369.713     69.729    76.286
375.090     68.938   135.883
380.546     68.260  -162.134
386.081     67.621   -99.490
391.697     67.149   -33.890
397.394     66.610    34.002
403.175     66.294   100.109
409.039     65.911   169.904
414.989     66.062  -117.472
421.025     66.455   -45.570
427.149     67.078    25.104
433.362     67.832    94.552
439.665     68.723   166.671
446.060     69.533  -123.502
452.548     70.248   -54.061
459.131     70.995    16.924
465.809     71.653    89.057
472.584     72.346   160.914
479.458     72.917  -127.846
486.432     73.501   -54.593
493.507     74.051    20.020
500.686     74.532    96.306
507.968     74.986   172.663
515.357     75.398  -111.125
522.853     75.778   -33.073
530.458     76.141    46.885
538.174     76.470   126.741
546.002     76.748  -153.342
553.943     76.999   -71.554
562.001     77.219    12.128
570.175     77.402    97.739
578.469     77.547  -174.802
586.883     77.659   -87.407
595.419     77.721    -0.043
604.080     77.756    89.146
612.866     77.752  -179.805
621.780     77.711   -86.889
630.824     77.624     7.892
640.000     77.497   102.652
649.309     77.330  -162.642
658.753     77.122   -66.060
668.335     76.865    34.361
678.056     76.553   134.880
687.919     76.166  -122.605
697.925     75.679   -18.161
708.077     75.096    86.186
718.376     74.407  -167.729
728.825     73.599   -59.953
739.426     72.655    49.375
750.181     71.590   160.160
761.093     70.394   -87.551
772.163     69.042    24.455
783.394     67.435   137.993
794.789     65.395  -105.819
806.349     62.853     8.053
818.078     59.577   118.310
829.977     55.844  -143.584
842.050     54.809   -62.705
854.298     57.783    31.972
866.724     60.848   145.503
879.330     63.139   -89.634
892.120     64.805    40.325
905.097     66.052   173.813
918.262     66.955   -49.658
931.618     67.577    89.460
945.169     68.011  -128.974
958.917     68.250    15.194
972.864     68.322   161.777
987.015     68.261   -49.105
1001.37     68.067   104.517
1015.94     67.760   -98.985
1030.71     67.358    58.287
1045.71     66.905  -139.582
1060.92     66.431    27.559
1076.35     65.996  -164.245
1092.00     65.621     6.640
1107.89     65.388  -177.957
1124.00     65.266    -0.375
1140.35     65.257   178.796
1156.94     65.323     1.419
1173.77     65.406  -174.588
1190.84     65.459    10.807
1208.16     65.462  -162.164
1225.73     65.372    28.540
1243.56     65.207  -136.784
1261.65     64.975    60.082
1280.00     64.683  -100.771
1298.62     64.374   100.883
1317.51     64.061   -53.240
1336.67     63.784   156.941
1356.11     63.567     9.018
1375.84     63.388  -135.118
1395.85     63.224    84.225
1416.15     63.013   -54.957
1436.75     62.723   167.243
1457.65     62.300    33.015
1478.85     61.730   -97.480
1500.36     60.999   134.246
1522.19     60.084    10.615
1544.33     59.008  -107.996
1566.79     57.837   138.831
1589.58     56.686    31.490
1612.70     55.716   -72.580
1636.16     54.996  -172.246
1659.95     54.516    91.098
1684.10     54.099    -3.316
1708.60     53.557   -95.196
1733.45     52.807   173.416
1758.66     51.721    87.444
1784.24     50.308     5.876
1810.19     48.619   -73.441
1836.52     46.814  -145.995
1863.24     45.010   144.292
1890.34     43.549    74.920
1917.83     42.550     0.320
1945.73     42.782   -79.816
1974.03     44.797  -155.771
2002.74     47.585   137.928
2031.87     50.247    80.883
2061.43     52.495    31.875
2091.41     54.257    -9.469
2121.83     55.629   -43.674
2152.69     56.638   -74.566
2184.01     57.339   -98.254
2215.77     57.745  -114.763
2248.00     57.937  -125.607
2280.70     57.958  -130.723
2313.87     57.979  -127.948
2347.53     58.129  -117.673
2381.68     58.500  -102.792
2416.32     59.049   -82.650
2451.46     59.624   -57.888
2487.12     60.113   -28.364
2523.30     60.406     6.629
2560.00     60.482    47.577
2597.24     60.390    93.156
2635.01     60.195   145.318
2673.34     59.940  -155.953
2712.23     59.613   -90.907
2751.68     59.174   -17.496
2791.70     58.596    62.856
2832.31     58.000   150.592
2873.50     57.540  -114.243
2915.30     57.336   -13.439
2957.70     57.228    93.510
3000.72     56.895  -156.133
3044.37     56.014   -40.931
3088.65     54.341    83.349
3133.58     51.814  -140.648
3179.16     49.278    16.123
3225.40     49.006  -170.097
3272.31     50.698    -0.594
3319.91     52.147   166.006
3368.20     52.852   -23.296
3417.19     52.943   153.128
3466.89     52.617   -20.623
3517.32     52.186   178.478
3568.48     52.034    26.463
3620.39     52.510  -117.586
3673.05     53.339   105.313
3726.47     53.968   -27.154
3780.67     54.227  -152.566
3835.67     54.302    91.678
3891.46     54.516   -13.212
3948.06     54.858  -111.872
4005.49     54.901   155.238
4063.75     54.370    74.495
4122.86     53.344     4.478
4182.82     52.202   -54.264
4243.66     51.142   -97.621
4305.39     50.376  -130.854
4368.01     49.996  -154.350
4431.55     49.556  -170.246
4496.01     48.409  -175.908
4561.40     47.060  -164.440
4627.75     46.688  -138.278
4695.06     47.395  -102.247
4763.35     48.658   -62.191
4832.64     49.778   -19.649
4902.93     50.007    30.590
4974.24     49.476    93.491
5046.60     48.706   166.979
5120.00     47.494  -107.977
5194.47     45.818   -10.642
5270.03     43.995    93.005
5346.68     40.845  -165.554
5424.45     36.197   -84.640
5503.35     38.395    -7.690
5583.40     42.869   123.128
5664.61     45.522   -78.392
5747.01     46.688    97.961
5830.60     47.405   -71.178
5915.41     47.639   133.671
6001.45     47.102   -11.079
6088.74     46.099  -144.822
6177.30     44.684    90.059
6267.15     42.323   -24.533
6358.31     41.078  -120.737
6450.80     41.800   156.542
6544.62     42.718    91.188
6639.82     43.884    47.958
6736.40     45.004    18.236
6834.38     45.583     3.194
6933.79     46.093     3.060
7034.64     46.223    16.366
7136.96     46.335    44.222
7240.77     46.100    88.611
7346.09     45.148   153.485
7452.94     43.012  -125.734
7561.35     37.941   -15.641
7671.33     32.903   151.680
7782.91     32.642    -3.373
7896.12     37.805  -169.320
8010.97     40.609    23.989
8127.49     42.607  -126.000
8245.71     43.179   100.956
8365.65     42.944    -8.548
8487.33     43.209   -96.353
8610.78     43.088  -171.618
8736.03     41.780   134.026
8863.09     40.280   103.315
8992.01     37.769    93.783
9122.80     35.313   123.957
9255.50     36.731   165.575
9390.12     36.786  -148.699
9526.70     33.360   -87.717
9665.27     29.250    14.721
9805.86     25.066   119.816
9948.49     16.443   127.083
10093.2     22.705  -162.722
10240.0     26.139    35.210
10388.9     29.493  -150.032
10540.1     29.133    54.993
10693.4     30.038   -52.582
10848.9     32.157  -126.282
11006.7     34.738  -178.533
11166.8     36.949   159.521
11329.2     38.467   154.023
11494.0     38.162   177.477
11661.2     36.955  -127.318
11830.8     34.846   -32.425
12002.9     35.215    98.945
12177.5     35.667  -123.901
12354.6     34.237    46.939
12534.3     34.638  -107.019
12716.6     34.982   117.569
12901.6     35.114     4.972
13089.2     34.735   -79.629
13279.6     36.073  -128.342
13472.8     37.309  -158.149
13668.8     37.116  -153.246
13867.6     36.148   -96.169
14069.3     40.320    -9.259
14273.9     41.637    88.680
14481.5     41.972  -129.186
14692.2     41.959    50.300
14905.9     41.649   -95.405
15122.7     41.549   155.995
15342.7     41.489    76.619
15565.8     40.162    21.982
15792.2     36.678     5.405
16021.9     31.773    35.279
16255.0     31.230   115.695
16491.4     33.442  -166.936
16731.3     35.201   -62.635
16974.7     34.583    73.192
17221.6     33.702  -123.482
17472.1     38.484    52.332
17726.2     38.518   -64.823
17984.0     36.493   -91.758
18245.6     35.113   -66.517
18511.0     32.728     3.266
18780.2     28.535   119.788
19053.4     26.187   -93.515
19330.5     25.049    76.466
19611.7     27.768   -78.633
19897.0     29.825  -166.796
20186.4     31.911   177.735
20480.0     32.912  -156.686
20777.9     31.484   -78.643
21080.1     30.321    58.407
21386.7     30.216  -120.975
21697.8     27.356    93.117
22013.4     22.836   -17.788
22333.6     21.142  -115.318
22658.4     24.128   179.953
22988.0     19.938  -147.903
23322.4     23.024    37.169
23661.6     18.496   123.729
24005.8     20.887   168.338
24355.0     24.682  -161.507
24709.2     26.192  -162.778
25068.6     23.862  -126.504
25433.2     24.321    26.778
25803.2     26.965   166.300
26178.5     22.847    37.306
26559.3     22.246   -39.923
26945.6     18.637    74.379
27337.5     15.803   -91.795
27735.2     19.031    85.859
28138.6     22.279    -9.641
28547.9     24.462  -179.428
28963.1     29.165   124.816
29384.4     26.114   140.225
29811.8     25.268  -126.243
30245.4     26.373    19.331
30685.3     25.169  -127.085
31131.7     16.826   174.664
31584.5     18.827    40.826
32043.9     24.492   -63.939
32510.0     21.530    65.855
32982.8     18.479   -75.778
33462.6     26.257  -172.466
33949.3     28.184  -161.135
34443.1     24.601   -35.008
34944.1     23.589    63.627
35452.4     28.680   124.975
35968.0     22.009   -90.984
36491.2     22.307    -3.472
37022.0     21.310   -17.933
37560.5     18.853  -171.717
38106.8     22.017   -55.192
38661.1     18.545   170.223
39223.4     17.314    14.448
39793.9     22.043    10.790
