Freq[Hz]     dBSPL  Phase[Deg]
5.00000     -1.153   105.589
5.07273     -0.696   108.172
5.14651     -0.345   110.297
5.22137     -0.286   111.146
5.29732     -0.228   111.995
5.37437     -0.169   112.844
5.45254     -0.111   113.693
5.53185     -0.370   114.944
5.61231     -0.966   116.622
5.69394     -1.562   118.299
5.77676     -2.157   119.977
5.86079     -2.761   121.815
5.94604     -3.857   133.148
6.03252     -4.952   144.481
6.12027     -6.047   155.814
6.20929     -7.142   167.147
6.29961     -6.203   179.396
6.39124     -4.812  -168.153
6.48420     -3.421  -155.701
6.57851     -2.030  -143.250
6.67420     -0.967  -140.790
6.77128      0.044  -139.954
6.86977      1.054  -139.117
6.96969      1.953  -138.593
7.07107      2.002  -140.440
7.17392      2.051  -142.288
7.27827      2.100  -144.136
7.38413      1.343  -146.300
7.49154     -0.037  -148.708
7.60050     -1.416  -151.116
7.71105     -3.121  -144.658
7.82321     -6.253   -99.262
7.93701     -9.384   -53.867
8.05245    -12.516    -8.471
8.16958     -8.046    -6.964
8.28841     -3.292    -7.097
8.40896      1.462    -7.229
8.53128      2.981   -12.000
8.65537      4.082   -17.369
8.78126      5.183   -22.738
8.90899      4.656   -32.468
9.03857      4.022   -42.485
9.17004      3.406   -55.393
9.30342      2.936   -91.324
9.43874      2.465  -127.255
9.57603      3.708  -156.728
9.71532      7.570  -176.334
9.85663     11.432   164.060
10.0000     14.088   154.223
10.1455     16.408   147.107
10.2930     18.491   140.676
10.4427     19.911   136.154
10.5946     21.332   131.631
10.7487     22.319   128.473
10.9051     23.221   125.587
11.0637     23.958   123.548
11.2246     24.522   122.404
11.3879     25.052   121.670
11.5535     25.458   122.426
11.7216     25.865   123.206
11.8921     26.293   125.437
12.0650     26.721   127.667
12.2405     27.228   130.273
12.4186     27.744   132.928
12.5992     28.267   135.355
12.7825     28.791   137.731
12.9684     29.239   140.077
13.1570     29.669   142.415
13.3484     30.020   145.375
13.5426     30.357   148.435
13.7395     30.736   152.589
13.9394     31.138   156.836
14.1421     31.710   161.462
14.3478     32.335   165.802
14.5565     33.074   169.525
14.7683     33.806   172.448
14.9831     34.533   174.753
15.2010     35.120   176.354
15.4221     35.647   177.883
15.6464     36.013   179.623
15.8740     36.328  -177.947
16.1049     36.600  -174.965
16.3392     36.986  -170.672
16.5768     37.487  -166.292
16.8179     38.148  -161.858
17.0626     38.968  -158.730
17.3107     39.789  -156.491
17.5625     40.582  -155.351
17.8180     41.171  -155.200
18.0771     41.608  -155.035
18.3401     41.888  -154.633
18.6068     41.986  -152.957
18.8775     42.092  -149.609
19.1521     42.317  -145.032
19.4306     42.749  -139.519
19.7133     43.538  -134.513
20.0000     44.459  -131.185
20.2909     45.361  -129.354
20.5860     46.143  -128.757
20.8855     46.726  -128.849
21.1893     47.037  -128.663
21.4975     47.182  -127.320
21.8102     47.279  -124.449
22.1274     47.463  -120.123
22.4492     47.844  -114.960
22.7758     48.451  -109.975
23.1071     49.195  -106.048
23.4432     49.926  -103.347
23.7841     50.532  -101.381
24.1301     51.001   -99.365
24.4811     51.388   -96.793
24.8372     51.775   -93.531
25.1984     52.233   -89.865
25.5649     52.777   -86.299
25.9368     53.361   -83.208
26.3141     53.922   -80.621
26.6968     54.413   -78.268
27.0851     54.834   -75.776
27.4791     55.220   -72.879
27.8788     55.625   -69.585
28.2843     56.077   -66.144
28.6957     56.565   -62.800
29.1131     57.061   -59.643
29.5365     57.539   -56.589
29.9661     57.994   -53.478
30.4020     58.441   -50.198
30.8442     58.904   -46.750
31.2929     59.388   -43.263
31.7480     59.883   -39.815
32.2098     60.377   -36.397
32.6783     60.864   -32.914
33.1536     61.351   -29.295
33.6359     61.851   -25.550
34.1251     62.373   -21.749
34.6215     62.905   -17.960
35.1250     63.435   -14.177
35.6359     63.956   -10.334
36.1543     64.474    -6.400
36.6802     64.991    -2.391
37.2137     65.505     1.662
37.7550     66.011     5.743
38.3041     66.510     9.846
38.8613     67.000    13.937
39.4265     67.481    17.975
40.0000     67.948    21.962
40.5818     68.406    25.896
41.1721     68.861    29.713
41.7710     69.303    33.359
42.3785     69.713    36.887
42.9949     70.095    40.530
43.6203     70.480    44.415
44.2548     70.902    48.451
44.8985     71.353    52.423
45.5515     71.801    56.346
46.2141     72.236    60.387
46.8863     72.669    64.613
47.5683     73.107    68.902
48.2602     73.525    73.174
48.9621     73.908    77.499
49.6743     74.263    81.923
50.3968     74.595    86.385
51.1299     74.901    90.838
51.8736     75.179    95.302
52.6281     75.435    99.797
53.3936     75.673   104.332
54.1702     75.897   108.936
54.9581     76.108   113.628
55.7575     76.304   118.425
56.5685     76.482   123.357
57.3914     76.637   128.435
58.2261     76.762   133.674
59.0730     76.848   139.180
59.9323     76.908   144.999
60.8040     76.960   151.096
61.6884     77.005   157.419
62.5857     77.047   163.876
63.4960     77.070   170.471
64.4196     77.075   177.305
65.3566     77.078  -175.624
66.3073     77.070  -168.382
67.2717     77.046  -160.893
68.2502     77.013  -153.139
69.2429     76.973  -145.098
70.2501     76.935  -136.735
71.2719     76.906  -128.135
72.3086     76.882  -119.368
73.3603     76.849  -110.441
74.4274     76.801  -101.302
75.5099     76.739   -91.999
76.6083     76.638   -82.416
77.7226     76.537   -72.280
78.8531     76.476   -61.892
80.0000     76.423   -51.262
81.1636     76.409   -40.378
82.3442     76.406   -29.479
83.5419     76.398   -18.393
84.7570     76.381    -7.143
85.9899     76.353     4.356
87.2406     76.311    16.072
88.5096     76.263    28.142
89.7970     76.240    40.412
91.1031     76.215    52.645
92.4282     76.155    64.968
93.7726     76.054    77.553
95.1366     75.918    90.695
96.5204     75.812   104.477
97.9243     75.743   118.623
99.3486     75.712   133.089
100.794     75.707   147.739
102.260     75.723   162.515
103.747     75.741   177.374
105.256     75.756  -167.677
106.787     75.758  -152.574
108.340     75.749  -137.332
109.916     75.694  -121.757
111.515     75.643  -105.499
113.137     75.634   -88.855
114.783     75.650   -72.041
116.452     75.669   -55.096
118.146     75.696   -37.971
119.865     75.724   -20.582
121.608     75.770    -2.842
123.377     75.822    15.170
125.171     75.865    33.420
126.992     75.896    51.866
128.839     75.928    70.480
130.713     75.957    89.203
132.615     75.964   108.216
134.543     75.947   128.147
136.500     75.947   148.732
138.486     75.964   167.394
140.500     75.989  -172.176
142.544     76.020  -150.086
144.617     75.978  -129.892
146.721     75.906  -108.961
148.855     75.951   -85.904
151.020     76.070   -63.664
153.217     76.086   -42.314
155.445     75.935   -20.236
157.706     75.858     2.413
160.000     75.679    26.912
162.327     75.563    52.678
164.688     75.606    76.131
167.084     75.711   101.664
169.514     75.964   126.975
171.980     75.694   151.221
174.481     75.343   176.708
177.019     75.249  -156.929
179.594     75.231  -129.322
182.206     75.204   -99.819
184.856     75.228   -69.710
187.545     75.371   -41.867
190.273     75.581   -12.518
193.041     75.793    15.783
195.849     75.866    43.688
198.697     75.926    73.847
201.587     75.976   103.871
204.520     75.903   133.572
207.494     75.830   164.289
210.512     75.769  -163.214
213.574     75.822  -131.294
216.681     75.511  -101.216
219.833     75.474   -67.249
223.030     75.422   -32.906
226.274     75.301     1.922
229.565     75.208    37.255
232.905     75.060    72.235
236.292     74.965   108.395
239.729     74.982   146.358
243.216     75.083  -175.834
246.754     75.220  -138.818
250.343     75.273  -100.577
253.984     75.302   -61.129
257.678     75.475   -23.020
261.426     75.541    17.131
265.229     75.666    56.633
269.087     75.455    95.256
273.001     75.164   136.648
276.972     75.119   178.486
281.000     75.098  -138.225
285.088     75.184   -93.539
289.234     75.200   -49.733
293.441     75.081    -5.307
297.709     75.140    38.237
302.040     75.007    81.585
306.433     74.686   126.195
310.890     74.218   175.392
315.412     74.206  -136.031
320.000     73.965   -88.569
324.655     73.521   -42.763
329.377     72.830     7.437
334.168     72.544    60.845
339.028     72.125   114.241
343.959     71.837   167.722
348.962     71.455  -139.338
354.038     71.051   -85.970
359.188     70.650   -30.406
364.412     70.227    26.086
369.713     69.391    83.396
375.090     68.766   143.412
380.546     68.321  -154.139
386.081     67.917   -91.359
391.697     67.734   -26.213
397.394     67.501    40.628
403.175     67.444   105.114
409.039     67.235   172.517
414.989     67.454  -117.385
421.025     67.765   -48.108
427.149     68.205    20.478
433.362     68.732    88.199
439.665     69.354   159.194
446.060     69.893  -131.616
452.548     70.357   -62.704
459.131     70.886     8.280
465.809     71.331    80.431
472.584     71.833   152.478
479.458     72.235  -136.068
486.432     72.667   -62.511
493.507     73.071    12.383
500.686     73.414    89.082
507.968     73.735   165.758
515.357     74.026  -117.735
522.853     74.291   -39.358
530.458     74.536    40.962
538.174     74.753   121.151
546.002     74.920  -158.661
553.943     75.061   -76.559
562.001     75.165     7.435
570.175     75.233    93.333
578.469     75.260  -178.918
586.883     75.245   -91.218
595.419     75.179    -3.587
604.080     75.086    85.761
612.866     74.942   177.094
621.780     74.750   -89.744
630.824     74.504     5.221
640.000     74.204   100.165
649.309     73.851  -165.034
658.753     73.453   -68.388
668.335     72.981    32.065
678.056     72.438   132.524
687.919     71.792  -125.050
697.925     71.019   -20.834
708.077     70.124    83.345
718.376     69.026  -170.894
728.825     67.716   -63.772
739.426     66.128    44.197
750.181     64.287   152.354
761.093     62.093   -99.985
772.163     59.668     3.618
783.394     57.014   102.170
794.789     55.225  -167.932
806.349     56.073   -79.150
818.078     58.237    22.490
829.977     60.362   135.070
842.050     62.106  -105.629
854.298     63.484    18.428
866.724     64.510   144.220
879.330     65.271   -85.288
892.120     65.825    47.870
905.097     66.177  -176.314
918.262     66.355   -38.201
931.618     66.396   102.605
945.169     66.284  -114.254
958.917     66.044    31.601
972.864     65.692  -179.869
987.015     65.245   -28.617
1001.37     64.723   127.816
1015.94     64.162   -72.776
1030.71     63.640    87.762
1045.71     63.209  -106.547
1060.92     62.923    63.922
1076.35     62.812  -125.609
1092.00     62.874    46.639
1107.89     63.039  -138.048
1124.00     63.254    38.414
1140.35     63.464  -144.231
1156.94     63.600    36.528
1173.77     63.645  -141.419
1190.84     63.568    42.208
1208.16     63.412  -132.184
1225.73     63.103    57.446
1243.56     62.697  -108.622
1261.65     62.200    87.787
1280.00     61.625   -73.258
1298.62     61.042   128.332
1317.51     60.447   -25.345
1336.67     59.890  -174.624
1356.11     59.392    38.282
1375.84     58.932  -104.702
1395.85     58.476   116.145
1416.15     58.011   -21.220
1436.75     57.526  -156.346
1457.65     56.910    73.205
1478.85     56.287   -52.604
1500.36     55.695  -175.082
1522.19     55.309    67.859
1544.33     55.173   -44.368
1566.79     55.424  -153.093
1589.58     55.918   101.082
1612.70     56.531    -4.763
1636.16     57.230  -107.823
1659.95     57.869   152.275
1684.10     58.461    55.760
1708.60     59.042   -37.159
1733.45     59.644  -128.208
1758.66     60.267   146.212
1784.24     60.940    64.169
1810.19     61.588   -16.375
1836.52     62.181   -91.709
1863.24     62.671  -163.479
1890.34     63.014   128.518
1917.83     63.211    64.645
1945.73     63.239     5.431
1974.03     63.141   -46.890
2002.74     62.967   -93.813
2031.87     62.819  -135.449
2061.43     62.807  -171.953
2091.41     62.926   157.884
2121.83     63.190   133.268
2152.69     63.491   109.872
2184.01     63.734    91.420
2215.77     63.838    78.374
2248.00     63.756    68.840
2280.70     63.429    63.340
2313.87     62.814    64.204
2347.53     61.886    72.152
2381.68     60.635    86.266
2416.32     59.169   110.290
2451.46     57.853   145.270
2487.12     57.281  -170.102
2523.30     57.557  -120.844
2560.00     58.132   -69.452
2597.24     58.543   -16.971
2635.01     58.677    40.698
2673.34     58.636   104.827
2712.23     58.518   175.364
2751.68     58.325  -105.928
2791.70     57.975   -20.673
2832.31     57.527    72.638
2873.50     57.282   174.270
2915.30     57.540   -78.112
2957.70     58.043    34.476
3000.72     58.255   150.176
3044.37     57.898   -88.515
3088.65     57.067    43.531
3133.58     56.177  -174.134
3179.16     55.652   -20.390
3225.40     55.602   142.817
3272.31     56.145   -47.427
3319.91     57.367   127.299
3368.20     58.647   -55.361
3417.19     59.410   124.578
3466.89     59.566   -46.988
3517.32     59.547   154.315
3568.48     59.807     2.758
3620.39     60.149  -142.730
3673.05     60.205    80.811
3726.47     59.977   -46.388
3780.67     59.854  -164.445
3835.67     59.740    84.349
3891.46     59.255   -17.639
3948.06     58.334  -109.563
4005.49     57.226   170.004
4063.75     56.126   106.187
4122.86     55.892    56.018
4182.82     57.176     9.917
4243.66     58.361   -34.759
4305.39     58.229   -74.432
4368.01     57.395   -98.482
4431.55     57.060  -108.995
4496.01     56.741  -112.613
4561.40     55.680  -103.641
4627.75     55.087   -78.472
4695.06     55.153   -43.882
4763.35     54.874     0.528
4832.64     55.170    57.002
4902.93     55.606   119.469
4974.24     55.034  -166.163
5046.60     54.383   -76.284
5120.00     53.912    26.741
5194.47     53.502   147.025
5270.03     54.466   -81.889
5346.68     55.780    54.692
5424.45     57.164  -157.738
5503.35     58.206    -4.175
5583.40     58.186   161.120
5664.61     58.033   -16.335
5747.01     57.545   176.225
5830.60     56.166    26.149
5915.41     55.446  -102.789
6001.45     54.396   140.320
6088.74     54.318    44.515
6177.30     55.506   -44.406
6267.15     55.850  -122.780
6358.31     56.246   172.833
6450.80     56.061   121.415
6544.62     55.905    86.358
6639.82     55.421    65.448
6736.40     54.522    65.811
6834.38     54.198    82.315
6933.79     54.044   114.576
7034.64     53.997   162.014
7136.96     53.808  -136.812
7240.77     53.565   -55.737
7346.09     53.679    43.953
7452.94     53.717   155.775
7561.35     53.900   -73.090
7671.33     54.117    72.384
7782.91     53.710  -125.730
7896.12     53.175    54.520
8010.97     51.992  -104.754
8127.49     50.877   121.196
8245.71     50.224    12.072
8365.65     50.747   -83.996
8487.33     51.405  -161.217
8610.78     51.834   132.596
8736.03     52.111    87.128
8863.09     51.694    56.951
8992.01     50.658    46.451
9122.80     47.968    61.629
9255.50     45.716   106.536
9390.12     44.725  -179.000
9526.70     44.264   -89.420
9665.27     43.847    12.635
9805.86     42.541   137.727
9948.49     39.427   -78.131
10093.2     31.393   107.205
10240.0     30.487     6.605
10388.9     34.478   -98.215
10540.1     37.129   154.785
10693.4     38.860    68.307
10848.9     40.431     6.611
11006.7     40.606   -36.324
11166.8     39.292   -46.153
11329.2     39.341   -21.063
11494.0     40.161    26.263
11661.2     41.292    92.599
11830.8     40.998  -173.397
12002.9     40.320   -50.441
12177.5     39.267   108.256
12354.6     40.087   -62.939
12534.3     41.177   150.186
12716.6     41.475    27.748
12901.6     41.695   -62.198
13089.2     42.096  -121.628
13279.6     43.038  -149.318
13472.8     44.218  -151.126
13668.8     44.595  -128.602
13867.6     44.483   -65.666
14069.3     44.542    24.485
14273.9     43.606   147.798
14481.5     43.470   -37.222
14692.2     45.328   161.924
14905.9     46.955    24.842
15122.7     47.380   -81.122
15342.7     47.298  -147.484
15565.8     47.063  -179.074
15792.2     46.285  -173.250
16021.9     45.856  -131.439
16255.0     44.684   -53.374
16491.4     42.573    69.153
16731.3     41.486  -122.438
16974.7     40.779    88.407
17221.6     42.812   -22.621
17472.1     45.409  -132.075
17726.2     38.933   156.840
17984.0     32.241  -175.084
18245.6     31.162   -99.507
18511.0     32.610    20.750
18780.2     35.462   156.544
19053.4     37.665   -29.643
19330.5     38.971  -173.696
19611.7     39.798    85.220
19897.0     40.388    26.974
20186.4     39.749    16.000
20480.0     39.045    55.570
20777.9     38.489   151.133
21080.1     39.446   -74.153
21386.7     39.261   104.098
21697.8     38.202   -26.224
22013.4     37.001  -105.725
22333.6     35.079  -129.868
22658.4     32.212  -102.527
22988.0     29.191    -4.084
23322.4     26.942   143.215
23661.6     27.961     3.353
24005.8     28.789    71.888
24355.0     28.536  -161.275
24709.2     29.517  -160.749
25068.6     29.001  -111.568
25433.2     26.557     4.313
25803.2     21.397    30.696
26178.5     17.308  -126.541
26559.3     22.612    30.438
26945.6     29.887    84.621
27337.5     30.753   110.892
27735.2     29.796  -144.163
28138.6     28.196    42.009
28547.9     28.552   -80.075
28963.1     27.253  -112.062
29384.4     25.697  -102.026
29811.8     21.081   -22.717
30245.4     16.088    -5.921
30685.3     19.926   -42.368
31131.7     17.113   -42.140
31584.5     21.437   -51.099
32043.9     21.754    53.149
32510.0     17.578   169.520
32982.8     20.874  -128.379
33462.6     17.932    31.748
33949.3     23.764   -97.233
34443.1     26.306    86.327
34944.1     27.996  -147.054
35452.4     18.283   -58.411
35968.0     17.651   114.613
36491.2     16.277   -97.591
37022.0     16.595  -139.761
37560.5     15.751   -80.233
38106.8     15.438   -43.940
38661.1     17.041    19.705
39223.4     15.658    29.401
39793.9     16.544   132.617
