Freq[Hz]     dBSPL  Phase[Deg]
5.00000     -2.546    46.045
5.07273     -2.089    47.748
5.14651     -1.736    48.978
5.22137     -1.677    48.882
5.29732     -1.617    48.787
5.37437     -1.557    48.692
5.45254     -1.498    48.597
5.53185     -1.755    48.874
5.61231     -2.347    49.544
5.69394     -2.940    50.214
5.77676     -3.532    50.884
5.86079     -4.133    51.714
5.94604     -5.224    61.978
6.03252     -6.316    72.242
6.12027     -7.407    82.506
6.20929     -8.498    92.770
6.29961     -7.553   103.900
6.39124     -6.157   115.223
6.48420     -4.761   126.546
6.57851     -3.365   137.869
6.67420     -2.295   139.149
6.77128     -1.278   138.799
6.86977     -0.261   138.449
6.96969      0.645   137.780
7.07107      0.701   134.689
7.17392      0.757   131.597
7.27827      0.813   128.506
7.38413      0.064   125.067
7.49154     -1.307   121.360
7.60050     -2.678   117.652
7.71105     -4.374   122.801
7.82321     -7.497   166.842
7.93701    -10.620  -149.117
8.05245    -13.744  -105.076
8.16958     -9.264  -104.977
8.28841     -4.501  -106.519
8.40896      0.262  -108.062
8.53128      1.789  -114.292
8.65537      2.900  -121.126
8.78126      4.010  -127.960
8.90899      3.491  -139.209
9.03857      2.866  -150.747
9.17004      2.258  -165.183
9.30342      1.796   157.306
9.43874      1.333   119.796
9.57603      2.584    88.720
9.71532      6.453    67.476
9.85663     10.323    46.233
10.0000     12.986    34.710
10.1455     15.313    25.897
10.2930     17.403    17.750
10.4427     18.830    11.468
10.5946     20.258     5.186
10.7487     21.251     0.214
10.9051     22.159    -4.495
11.0637     22.902    -8.389
11.2246     23.471   -11.421
11.3879     24.007   -14.057
11.5535     24.418   -15.255
11.7216     24.830   -16.429
11.8921     25.263   -16.219
12.0650     25.697   -16.009
12.2405     26.209   -15.482
12.4186     26.731   -14.913
12.5992     27.260   -14.627
12.7825     27.790   -14.404
12.9684     28.244   -14.265
13.1570     28.680   -14.146
13.3484     29.038   -13.461
13.5426     29.383   -12.685
13.7395     29.770   -10.877
13.9394     30.180    -8.987
14.1421     30.761    -6.771
14.3478     31.396    -4.862
14.5565     32.145    -3.612
14.7683     32.888    -3.195
14.9831     33.626    -3.422
15.2010     34.226    -4.404
15.4221     34.765    -5.478
15.6464     35.144    -6.388
15.8740     35.471    -6.639
16.1049     35.757    -6.365
16.3392     36.157    -4.835
16.5768     36.671    -3.243
16.8179     37.347    -1.632
17.0626     38.180    -1.378
17.3107     39.016    -2.044
17.5625     39.823    -3.844
17.8180     40.426    -6.691
18.0771     40.876    -9.557
18.3401     41.171   -12.225
18.6068     41.283   -13.674
18.8775     41.402   -13.498
19.1521     41.640   -12.135
19.4306     42.087    -9.880
19.7133     42.891    -8.192
20.0000     43.827    -8.233
20.2909     44.745    -9.818
20.5860     45.543   -12.686
20.8855     46.142   -16.292
21.1893     46.471   -19.682
21.4975     46.635   -21.965
21.8102     46.752   -22.771
22.1274     46.957   -22.171
22.4492     47.360   -20.784
22.7758     47.992   -19.626
23.1071     48.759   -19.577
23.4432     49.517   -20.803
23.7841     50.148   -22.820
24.1301     50.643   -24.838
24.4811     51.057   -26.352
24.8372     51.471   -27.232
25.1984     51.956   -27.763
25.5649     52.528   -28.450
25.9368     53.139   -29.673
26.3141     53.729   -31.463
26.6968     54.249   -33.549
27.0851     54.699   -35.562
27.4791     55.115   -37.236
27.8788     55.553   -38.582
28.2843     56.038   -39.845
28.6957     56.563   -41.267
29.1131     57.096   -42.935
29.5365     57.614   -44.762
29.9661     58.110   -46.584
30.4020     58.600   -48.288
30.8442     59.107   -49.875
31.2929     59.633   -51.468
31.7480     60.170   -53.146
32.2098     60.701   -54.904
32.6783     61.220   -56.661
33.1536     61.735   -58.350
33.6359     62.257   -59.991
34.1251     62.793   -61.677
34.6215     63.334   -63.493
35.1250     63.870   -65.434
35.6359     64.394   -67.472
36.1543     64.917   -69.566
36.6802     65.443   -71.737
37.2137     65.973   -74.020
37.7550     66.509   -76.407
38.3041     67.051   -78.896
38.8613     67.601   -81.481
39.4265     68.159   -84.178
40.0000     68.719   -86.949
40.5818     69.282   -89.765
41.1721     69.849   -92.664
41.7710     70.405   -95.691
42.3785     70.925   -98.789
42.9949     71.403  -101.747
43.6203     71.868  -104.469
44.2548     72.348  -107.091
44.8985     72.834  -109.884
45.5515     73.297  -112.879
46.2141     73.730  -115.953
46.8863     74.152  -119.070
47.5683     74.577  -122.373
48.2602     74.988  -125.928
48.9621     75.376  -129.634
49.6743     75.752  -133.408
50.3968     76.122  -137.262
51.1299     76.482  -141.201
51.8736     76.825  -145.171
52.6281     77.149  -149.136
53.3936     77.454  -153.091
54.1702     77.737  -157.032
54.9581     77.997  -160.973
55.7575     78.231  -164.940
56.5685     78.438  -168.933
57.3914     78.618  -172.960
58.2261     78.768  -177.010
59.0730     78.883   179.022
59.9323     78.980   175.214
60.8040     79.073   171.552
61.6884     79.167   167.998
62.5857     79.259   164.475
63.4960     79.333   160.982
64.4196     79.386   157.613
65.3566     79.434   154.347
66.3073     79.468   151.108
67.2717     79.483   147.956
68.2502     79.487   144.906
69.2429     79.483   141.977
70.2501     79.483   139.199
71.2719     79.494   136.495
72.3086     79.511   133.798
73.3603     79.520   131.106
74.4274     79.517   128.481
75.5099     79.499   125.875
76.6083     79.438   123.399
77.7226     79.374   121.315
78.8531     79.344   119.301
80.0000     79.319   117.325
81.1636     79.332   115.390
82.3442     79.360   113.259
83.5419     79.385   111.117
84.7570     79.407   108.957
85.9899     79.418   106.879
87.2406     79.417   104.849
88.5096     79.408   102.993
89.7970     79.423   101.144
91.1031     79.435    99.058
92.4282     79.411    96.866
93.7726     79.345    94.743
95.1366     79.242    92.980
96.5204     79.166    91.648
97.9243     79.124    90.456
99.3486     79.117    89.348
100.794     79.137    88.188
102.260     79.180    86.929
103.747     79.225    85.533
105.256     79.264    84.002
106.787     79.291    82.393
108.340     79.303    80.684
109.916     79.271    79.069
111.515     79.239    77.896
113.137     79.248    76.865
114.783     79.280    75.746
116.452     79.315    74.503
118.146     79.354    73.179
119.865     79.392    71.857
121.608     79.443    70.603
123.377     79.500    69.313
125.171     79.551    67.953
126.992     79.598    66.516
128.839     79.647    65.009
130.713     79.691    63.372
132.615     79.702    61.740
134.543     79.687    60.275
136.500     79.689    58.939
138.486     79.711    57.686
140.500     79.739    56.237
142.544     79.767    54.463
144.617     79.721    52.758
146.721     79.648    51.780
148.855     79.697    50.974
151.020     79.815    49.406
153.217     79.820    46.951
155.445     79.652    45.170
157.706     79.563    43.917
160.000     79.381    42.542
162.327     79.263    42.491
164.688     79.299    42.137
167.084     79.394    41.873
169.514     79.637    39.407
171.980     79.358    35.903
174.481     78.994    35.637
177.019     78.885    36.249
179.594     78.850    36.116
182.206     78.807    35.902
184.856     78.815    36.321
187.545     78.938    36.456
190.273     79.126    36.077
193.041     79.326    34.653
195.849     79.390    32.904
198.697     79.432    31.448
201.587     79.467    29.822
204.520     79.386    27.922
207.494     79.299    27.089
210.512     79.220    26.026
213.574     79.265    24.386
216.681     78.949    22.947
219.833     78.900    23.449
223.030     78.836    22.327
226.274     78.711    21.704
229.565     78.617    21.632
232.905     78.467    21.239
236.292     78.369    22.016
239.729     78.393    22.610
243.216     78.512    23.124
246.754     78.663    22.899
250.343     78.740    21.910
253.984     78.805    22.274
257.678     78.993    21.346
261.426     79.080    20.412
265.229     79.233    18.875
269.087     79.052    16.399
273.001     78.804    16.688
276.972     78.808    17.413
281.000     78.855    17.573
285.088     79.036    17.178
289.234     79.167    16.005
293.441     79.162    15.499
297.709     79.340    14.079
302.040     79.330    12.311
306.433     79.193     9.746
310.890     78.930    10.042
315.412     79.118     9.559
320.000     79.109     7.850
324.655     78.918     4.474
329.377     78.488     5.347
334.168     78.517     5.292
339.028     78.440     5.109
343.959     78.509     4.808
348.962     78.512     3.663
354.038     78.521     2.739
359.188     78.560     1.741
364.412     78.594    -0.803
369.713     78.227    -2.974
375.090     78.058    -2.897
380.546     78.046    -3.077
386.081     78.050    -3.548
391.697     78.201    -4.257
397.394     78.215    -5.879
403.175     78.246    -8.123
409.039     78.026    -9.698
414.989     78.059   -10.460
421.025     78.052   -11.709
427.149     78.081   -13.100
433.362     78.118   -14.583
439.665     78.169   -16.264
446.060     78.118   -18.970
452.548     77.962   -21.205
459.131     77.871   -22.992
465.809     77.710   -24.919
472.584     77.621   -26.462
479.458     77.474   -28.184
486.432     77.376   -29.303
493.507     77.264   -30.678
500.686     77.142   -31.974
507.968     77.044   -32.763
515.357     76.960   -33.519
522.853     76.898   -34.048
530.458     76.864   -34.328
538.174     76.860   -34.567
546.002     76.878   -34.683
553.943     76.937   -34.631
562.001     77.022   -34.564
570.175     77.129   -34.470
578.469     77.278   -34.533
586.883     77.448   -34.662
595.419     77.630   -35.039
604.080     77.837   -35.595
612.866     78.052   -36.384
621.780     78.274   -37.396
630.824     78.494   -38.665
640.000     78.707   -40.132
649.309     78.896   -41.735
658.753     79.074   -43.590
668.335     79.232   -45.635
678.056     79.364   -47.764
687.919     79.461   -50.035
697.925     79.531   -52.400
708.077     79.564   -54.769
718.376     79.569   -57.191
728.825     79.543   -59.583
739.426     79.485   -61.859
750.181     79.397   -64.032
761.093     79.279   -66.076
772.163     79.154   -67.890
783.394     79.008   -69.422
794.789     78.862   -70.732
806.349     78.722   -71.767
818.078     78.609   -72.536
829.977     78.525   -73.100
842.050     78.494   -73.493
854.298     78.508   -73.803
866.724     78.570   -74.172
879.330     78.685   -74.693
892.120     78.837   -75.453
905.097     79.018   -76.507
918.262     79.217   -77.897
931.618     79.415   -79.596
945.169     79.602   -81.583
958.917     79.768   -83.857
972.864     79.910   -86.308
987.015     80.020   -88.926
1001.37     80.096   -91.643
1015.94     80.146   -94.386
1030.71     80.166   -97.069
1045.71     80.169   -99.747
1060.92     80.157  -102.373
1076.35     80.143  -104.922
1092.00     80.129  -107.426
1107.89     80.125  -109.987
1124.00     80.128  -112.581
1140.35     80.137  -115.327
1156.94     80.143  -118.252
1173.77     80.138  -121.393
1190.84     80.106  -124.735
1208.16     80.039  -128.307
1225.73     79.920  -132.052
1243.56     79.737  -135.925
1261.65     79.485  -139.744
1280.00     79.157  -143.449
1298.62     78.753  -146.808
1317.51     78.276  -149.783
1336.67     77.742  -152.113
1356.11     77.181  -153.653
1375.84     76.630  -154.295
1395.85     76.145  -154.065
1416.15     75.772  -153.161
1436.75     75.551  -151.943
1457.65     75.476  -150.803
1478.85     75.516  -150.091
1500.36     75.622  -150.007
1522.19     75.754  -150.562
1544.33     75.867  -151.562
1566.79     75.949  -152.925
1589.58     75.994  -154.407
1612.70     76.009  -155.891
1636.16     76.012  -157.267
1659.95     76.019  -158.538
1684.10     76.045  -159.773
1708.60     76.103  -161.018
1733.45     76.184  -162.428
1758.66     76.282  -164.100
1784.24     76.381  -166.071
1810.19     76.456  -168.359
1836.52     76.483  -170.923
1863.24     76.452  -173.613
1890.34     76.345  -176.220
1917.83     76.168  -178.536
1945.73     75.945   179.708
1974.03     75.727   178.661
2002.74     75.583   178.300
2031.87     75.570   178.255
2061.43     75.700   177.841
2091.41     75.936   176.492
2121.83     76.163   173.926
2152.69     76.276   170.284
2184.01     76.190   166.012
2215.77     75.853   161.808
2248.00     75.271   158.607
2280.70     74.521   157.369
2313.87     73.795   158.805
2347.53     73.370   162.505
2381.68     73.406   166.596
2416.32     73.792   169.149
2451.46     74.264   169.560
2487.12     74.638   168.458
2523.30     74.869   166.772
2560.00     74.996   165.171
2597.24     75.093   163.812
2635.01     75.192   162.488
2673.34     75.281   161.019
2712.23     75.331   159.438
2751.68     75.341   158.055
2791.70     75.355   157.001
2832.31     75.429   156.070
2873.50     75.556   154.793
2915.30     75.678   152.847
2957.70     75.713   150.415
3000.72     75.632   147.981
3044.37     75.465   145.978
3088.65     75.272   144.534
3133.58     75.092   143.482
3179.16     74.930   142.581
3225.40     74.769   141.775
3272.31     74.597   141.107
3319.91     74.418   140.699
3368.20     74.253   140.568
3417.19     74.138   140.611
3466.89     74.071   140.456
3517.32     73.978   139.809
3568.48     73.779   139.018
3620.39     73.469   138.809
3673.05     73.145   139.542
3726.47     72.873   140.871
3780.67     72.617   142.447
3835.67     72.341   144.644
3891.46     72.090   147.826
3948.06     71.925   152.085
4005.49     71.905   157.750
4063.75     72.269   164.921
4122.86     73.247   171.347
4182.82     74.624   174.188
4243.66     75.980   172.962
4305.39     77.023   168.935
4368.01     77.664   163.860
4431.55     77.990   159.188
4496.01     78.166   155.345
4561.40     78.266   151.879
4627.75     78.249   148.759
4695.06     78.148   146.463
4763.35     78.050   144.933
4832.64     77.971   143.913
4902.93     77.942   143.422
4974.24     78.005   142.963
5046.60     78.099   142.143
5120.00     78.187   141.100
5194.47     78.239   139.810
5270.03     78.225   138.672
5346.68     78.223   137.949
5424.45     78.252   137.102
5503.35     78.260   136.225
5583.40     78.289   135.324
5664.61     78.281   134.119
5747.01     78.231   133.009
5830.60     78.157   131.727
5915.41     77.977   130.585
6001.45     77.764   129.994
6088.74     77.521   129.682
6177.30     77.268   130.019
6267.15     77.032   130.609
6358.31     76.791   131.941
6450.80     76.663   133.672
6544.62     76.597   135.526
6639.82     76.656   137.232
6736.40     76.734   138.212
6834.38     76.795   138.696
6933.79     76.713   138.988
7034.64     76.618   139.980
7136.96     76.484   140.937
7240.77     76.329   142.732
7346.09     76.220   144.972
7452.94     76.198   147.451
7561.35     76.152   150.160
7671.33     76.287   153.311
7782.91     76.405   155.793
7896.12     76.587   158.817
8010.97     76.856   161.841
8127.49     77.232   164.223
8245.71     77.596   166.244
8365.65     77.985   167.059
8487.33     78.224   167.226
8610.78     78.319   167.126
8736.03     78.307   167.095
8863.09     78.153   167.889
8992.01     78.084   169.331
9122.80     78.096   171.082
9255.50     78.227   172.362
9390.12     78.413   172.471
9526.70     78.452   172.160
9665.27     78.428   171.790
9805.86     78.337   172.347
9948.49     78.380   173.683
10093.2     78.550   174.969
10240.0     78.855   176.134
10388.9     79.182   176.366
10540.1     79.480   176.070
10693.4     79.640   175.034
10848.9     79.693   174.691
11006.7     79.729   174.733
11166.8     79.810   175.168
11329.2     79.922   174.995
11494.0     79.969   174.849
11661.2     79.915   174.747
11830.8     79.878   175.494
12002.9     79.910   176.374
12177.5     80.052   176.865
12354.6     80.106   176.233
12534.3     79.956   175.396
12716.6     79.649   176.609
12901.6     79.562   178.263
13089.2     79.509  -179.631
13279.6     79.619  -177.746
13472.8     79.849  -176.797
13668.8     79.995  -176.998
13867.6     80.001  -177.977
14069.3     79.799  -178.573
14273.9     79.457  -178.012
14481.5     79.232  -176.066
14692.2     79.237  -173.900
14905.9     79.338  -173.284
15122.7     79.336  -173.876
15342.7     79.131  -174.898
15565.8     78.702  -175.253
15792.2     78.178  -174.667
16021.9     77.709  -172.242
16255.0     77.502  -169.918
16491.4     77.244  -169.350
16731.3     76.715  -168.622
16974.7     76.077  -165.831
17221.6     75.671  -161.741
17472.1     75.581  -158.233
17726.2     75.324  -157.772
17984.0     74.675  -155.861
18245.6     74.107  -151.647
18511.0     73.806  -147.473
18780.2     73.479  -144.377
19053.4     73.067  -140.542
19330.5     72.825  -136.745
19611.7     72.422  -133.993
19897.0     71.966  -129.276
20186.4     71.783  -125.466
20480.0     71.230  -122.749
20777.9     70.493  -116.681
21080.1     70.375  -108.873
21386.7     70.404  -103.843
21697.8     70.409   -99.276
22013.4     70.418   -95.971
22333.6     70.146   -93.275
22658.4     69.816   -88.350
22988.0     69.843   -84.043
23322.4     69.660   -82.002
23661.6     69.174   -78.114
24005.8     69.044   -73.144
24355.0     68.908   -70.682
24709.2     68.443   -67.484
25068.6     68.164   -62.577
25433.2     68.107   -59.113
25803.2     67.975   -57.281
26178.5     67.714   -56.044
26559.3     67.312   -55.068
26945.6     66.736   -54.147
27337.5     65.947   -51.639
27735.2     65.272   -48.098
28138.6     64.556   -44.574
28547.9     63.809   -40.766
28963.1     62.908   -36.806
29384.4     61.897   -32.242
29811.8     60.593   -27.462
30245.4     58.922   -19.374
30685.3     57.491    -7.078
31131.7     56.380     6.835
31584.5     55.685    21.100
32043.9     55.187    35.297
32510.0     54.997    48.947
32982.8     55.135    61.787
33462.6     55.558    72.306
33949.3     56.048    79.897
34443.1     56.252    82.489
34944.1     55.224    87.501
35452.4     55.334    99.270
35968.0     55.615   101.618
36491.2     55.032   103.093
37022.0     54.135   106.511
37560.5     53.046   111.237
38106.8     51.833   115.994
38661.1     50.459   122.339
39223.4     48.968   130.457
39793.9     47.366   140.147
