Freq[Hz]     dBSPL  Phase[Deg]
5.00000     -2.951    46.373
5.07273     -2.495    48.095
5.14651     -2.145    49.343
5.22137     -2.088    49.266
5.29732     -2.030    49.189
5.37437     -1.973    49.112
5.45254     -1.915    49.035
5.53185     -2.176    49.329
5.61231     -2.772    50.014
5.69394     -3.368    50.700
5.77676     -3.964    51.385
5.86079     -4.568    52.231
5.94604     -5.664    62.506
6.03252     -6.759    72.782
6.12027     -7.855    83.057
6.20929     -8.950    93.332
6.29961     -8.010   104.469
6.39124     -6.619   115.798
6.48420     -5.228   127.126
6.57851     -3.836   138.455
6.67420     -2.772   139.735
6.77128     -1.760   139.383
6.86977     -0.748   139.031
6.96969      0.152   138.360
7.07107      0.202   135.259
7.17392      0.253   132.158
7.27827      0.303   129.057
7.38413     -0.452   125.604
7.49154     -1.828   121.879
7.60050     -3.205   118.154
7.71105     -4.906   123.283
7.82321     -8.035   167.298
7.93701    -11.163  -148.687
8.05245    -14.291  -104.672
8.16958     -9.817  -104.606
8.28841     -5.058  -106.183
8.40896     -0.300  -107.759
8.53128      1.224  -114.028
8.65537      2.331  -120.903
8.78126      3.438  -127.777
8.90899      2.917  -139.071
9.03857      2.289  -150.654
9.17004      1.679  -165.136
9.30342      1.216   157.306
9.43874      0.752   119.748
9.57603      2.003    88.624
9.71532      5.873    67.332
9.85663      9.744    46.040
10.0000     12.409    34.470
10.1455     14.739    25.610
10.2930     16.831    17.419
10.4427     18.262    11.094
10.5946     19.693     4.770
10.7487     20.692    -0.237
10.9051     21.604    -4.982
11.0637     22.353    -8.906
11.2246     22.928   -11.963
11.3879     23.469   -14.623
11.5535     23.888   -15.836
11.7216     24.307   -17.025
11.8921     24.748   -16.818
12.0650     25.188   -16.610
12.2405     25.707   -16.074
12.4186     26.236   -15.496
12.5992     26.771   -15.190
12.7825     27.308   -14.944
12.9684     27.767   -14.773
13.1570     28.208   -14.620
13.3484     28.570   -13.894
13.5426     28.919   -13.074
13.7395     29.307   -11.215
13.9394     29.719    -9.273
14.1421     30.300    -7.002
14.3478     30.933    -5.038
14.5565     31.680    -3.731
14.7683     32.418    -3.260
14.9831     33.151    -3.433
15.2010     33.744    -4.367
15.4221     34.276    -5.396
15.6464     34.646    -6.268
15.8740     34.963    -6.489
16.1049     35.238    -6.189
16.3392     35.626    -4.647
16.5768     36.129    -3.051
16.8179     36.792    -1.445
17.0626     37.614    -1.209
17.3107     38.437    -1.901
17.5625     39.233    -3.736
17.8180     39.825    -6.631
18.0771     40.265    -9.552
18.3401     40.551   -12.281
18.6068     40.656   -13.798
18.8775     40.769   -13.693
19.1521     41.004   -12.404
19.4306     41.448   -10.223
19.7133     42.251    -8.606
20.0000     43.187    -8.713
20.2909     44.107   -10.358
20.5860     44.909   -13.279
20.8855     45.512   -16.929
21.1893     45.845   -20.350
21.4975     46.014   -22.653
21.8102     46.135   -23.468
22.1274     46.342   -22.868
22.4492     46.748   -21.470
22.7758     47.380   -20.294
23.1071     48.147   -20.222
23.4432     48.900   -21.423
23.7841     49.527   -23.415
24.1301     50.015   -25.414
24.4811     50.420   -26.917
24.8372     50.824   -27.796
25.1984     51.297   -28.339
25.5649     51.857   -29.053
25.9368     52.456   -30.319
26.3141     53.034   -32.166
26.6968     53.544   -34.323
27.0851     53.986   -36.416
27.4791     54.396   -38.179
27.8788     54.830   -39.616
28.2843     55.313   -40.968
28.6957     55.837   -42.473
29.1131     56.372   -44.214
29.5365     56.893   -46.101
29.9661     57.393   -47.971
30.4020     57.885   -49.707
30.8442     58.392   -51.316
31.2929     58.918   -52.924
31.7480     59.452   -54.615
32.2098     59.978   -56.390
32.6783     60.490   -58.177
33.1536     60.996   -59.912
33.6359     61.509   -61.619
34.1251     62.038   -63.394
34.6215     62.574   -65.320
35.1250     63.109   -67.384
35.6359     63.638   -69.547
36.1543     64.171   -71.756
36.6802     64.713   -74.016
37.2137     65.264   -76.345
37.7550     65.820   -78.725
38.3041     66.384   -81.141
38.8613     66.951   -83.594
39.4265     67.517   -86.103
40.0000     68.074   -88.649
40.5818     68.621   -91.228
41.1721     69.159   -93.909
41.7710     69.672   -96.763
42.3785     70.137   -99.771
42.9949     70.554  -102.738
43.6203     70.957  -105.578
44.2548     71.379  -108.438
44.8985     71.818  -111.570
45.5515     72.249  -114.974
46.2141     72.668  -118.489
46.8863     73.094  -122.034
47.5683     73.540  -125.703
48.2602     73.984  -129.524
48.9621     74.408  -133.383
49.6743     74.817  -137.198
50.3968     75.210  -141.007
51.1299     75.578  -144.853
51.8736     75.914  -148.732
52.6281     76.219  -152.650
53.3936     76.496  -156.635
54.1702     76.749  -160.695
54.9581     76.984  -164.838
55.7575     77.204  -169.061
56.5685     77.409  -173.322
57.3914     77.597  -177.591
58.2261     77.764   178.174
59.0730     77.897   174.095
59.9323     78.008   170.240
60.8040     78.107   166.570
61.6884     78.198   163.014
62.5857     78.279   159.466
63.4960     78.338   155.900
64.4196     78.375   152.411
65.3566     78.410   148.985
66.3073     78.436   145.568
67.2717     78.449   142.240
68.2502     78.453   139.033
69.2429     78.451   135.969
70.2501     78.451   133.076
71.2719     78.460   130.265
72.3086     78.472   127.456
73.3603     78.474   124.639
74.4274     78.463   121.868
75.5099     78.440   119.100
76.6083     78.376   116.451
77.7226     78.311   114.195
78.8531     78.284   112.022
80.0000     78.263   109.915
81.1636     78.278   107.876
82.3442     78.302   105.661
83.5419     78.319   103.431
84.7570     78.327   101.154
85.9899     78.322    98.913
87.2406     78.308    96.674
88.5096     78.291    94.583
89.7970     78.304    92.505
91.1031     78.319    90.220
92.4282     78.297    87.859
93.7726     78.230    85.584
95.1366     78.121    83.656
96.5204     78.040    82.137
97.9243     77.993    80.742
99.3486     77.985    79.434
100.794     78.005    78.091
102.260     78.045    76.660
103.747     78.084    75.086
105.256     78.116    73.354
106.787     78.135    71.522
108.340     78.144    69.578
109.916     78.110    67.725
111.515     78.079    66.319
113.137     78.090    65.060
114.783     78.124    63.727
116.452     78.161    62.293
118.146     78.197    60.794
119.865     78.227    59.284
121.608     78.266    57.793
123.377     78.314    56.210
125.171     78.365    54.538
126.992     78.418    52.817
128.839     78.474    51.074
130.713     78.520    49.222
132.615     78.530    47.358
134.543     78.513    45.632
136.500     78.517    44.036
138.486     78.540    42.564
140.500     78.565    40.881
142.544     78.588    38.831
144.617     78.537    36.854
146.721     78.462    35.601
148.855     78.508    34.495
151.020     78.625    32.622
153.217     78.629    29.857
155.445     78.464    27.778
157.706     78.376    26.241
160.000     78.193    24.565
162.327     78.073    24.204
164.688     78.106    23.544
167.084     78.202    22.937
169.514     78.450    20.135
171.980     78.171    16.348
174.481     77.796    15.795
177.019     77.677    16.034
179.594     77.644    15.473
182.206     77.610    14.885
184.856     77.616    14.972
187.545     77.732    14.733
190.273     77.924    13.926
193.041     78.132    12.149
195.849     78.192    10.095
198.697     78.220     8.246
201.587     78.246     6.150
204.520     78.165     3.787
207.494     78.078     2.521
210.512     78.000     1.006
213.574     78.043    -1.064
216.681     77.719    -2.919
219.833     77.664    -2.906
223.030     77.600    -4.510
226.274     77.465    -5.582
229.565     77.358    -6.181
232.905     77.206    -7.109
236.292     77.104    -6.797
239.729     77.115    -6.712
243.216     77.222    -6.730
246.754     77.360    -7.457
250.343     77.415    -8.988
253.984     77.458    -9.202
257.678     77.623   -10.700
261.426     77.684   -12.263
265.229     77.814   -14.412
269.087     77.599   -17.482
273.001     77.322   -17.869
276.972     77.305   -17.728
281.000     77.310   -18.147
285.088     77.449   -19.214
289.234     77.539   -21.033
293.441     77.493   -22.167
297.709     77.626   -24.132
302.040     77.560   -26.467
306.433     77.366   -29.598
310.890     77.034   -29.860
315.412     77.154   -30.907
320.000     77.069   -33.154
324.655     76.819   -37.111
329.377     76.328   -36.579
334.168     76.275   -37.080
339.028     76.126   -37.605
343.959     76.119   -38.275
348.962     76.058   -39.640
354.038     75.995   -40.778
359.188     75.968   -41.949
364.412     75.938   -44.593
369.713     75.509   -46.901
375.090     75.305   -46.865
380.546     75.244   -47.031
386.081     75.220   -47.527
391.697     75.351   -48.218
397.394     75.363   -49.854
403.175     75.406   -52.029
409.039     75.197   -53.562
414.989     75.260   -54.429
421.025     75.304   -55.674
427.149     75.388   -57.219
433.362     75.493   -58.816
439.665     75.624   -60.737
446.060     75.659   -63.769
452.548     75.596   -66.438
459.131     75.608   -68.771
465.809     75.562   -71.403
472.584     75.587   -73.696
479.458     75.545   -76.344
486.432     75.563   -78.560
493.507     75.564   -81.146
500.686     75.535   -83.759
507.968     75.512   -86.125
515.357     75.490   -88.539
522.853     75.473   -90.848
530.458     75.455   -93.035
538.174     75.432   -95.213
546.002     75.400   -97.292
553.943     75.367   -99.182
562.001     75.325  -101.060
570.175     75.280  -102.846
578.469     75.231  -104.536
586.883     75.181  -106.162
595.419     75.136  -107.701
604.080     75.088  -109.211
612.866     75.057  -110.679
621.780     75.032  -112.042
630.824     75.022  -113.411
640.000     75.015  -114.743
649.309     75.034  -116.077
658.753     75.068  -117.420
668.335     75.118  -118.847
678.056     75.183  -120.404
687.919     75.272  -122.018
697.925     75.371  -123.827
708.077     75.482  -125.721
718.376     75.608  -127.798
728.825     75.739  -130.006
739.426     75.864  -132.400
750.181     75.995  -134.931
761.093     76.111  -137.575
772.163     76.210  -140.321
783.394     76.292  -143.246
794.789     76.363  -146.260
806.349     76.406  -149.361
818.078     76.433  -152.576
829.977     76.441  -155.779
842.050     76.427  -159.012
854.298     76.397  -162.265
866.724     76.354  -165.415
879.330     76.288  -168.550
892.120     76.215  -171.691
905.097     76.140  -174.695
918.262     76.062  -177.623
931.618     75.982   179.521
945.169     75.907   176.739
958.917     75.848   173.930
972.864     75.804   171.166
987.015     75.774   168.387
1001.37     75.750   165.514
1015.94     75.744   162.485
1030.71     75.749   159.383
1045.71     75.759   156.076
1060.92     75.767   152.561
1076.35     75.767   148.857
1092.00     75.761   144.962
1107.89     75.730   140.851
1124.00     75.685   136.568
1140.35     75.596   132.137
1156.94     75.485   127.478
1173.77     75.330   122.771
1190.84     75.128   117.957
1208.16     74.890   113.133
1225.73     74.590   108.276
1243.56     74.241   103.478
1261.65     73.835    98.855
1280.00     73.381    94.469
1298.62     72.882    90.450
1317.51     72.343    86.860
1336.67     71.792    83.846
1356.11     71.253    81.370
1375.84     70.774    79.571
1395.85     70.378    78.219
1416.15     70.112    77.045
1436.75     69.984    75.768
1457.65     69.974    73.961
1478.85     70.042    71.469
1500.36     70.150    68.126
1522.19     70.261    63.934
1544.33     70.348    59.048
1566.79     70.379    53.660
1589.58     70.363    47.815
1612.70     70.297    41.851
1636.16     70.206    35.723
1659.95     70.129    29.638
1684.10     70.057    23.555
1708.60     70.061    17.371
1733.45     70.155    10.968
1758.66     70.341     4.089
1784.24     70.627    -3.447
1810.19     70.969   -11.581
1836.52     71.345   -20.653
1863.24     71.722   -30.343
1890.34     72.062   -40.562
1917.83     72.352   -50.964
1945.73     72.572   -61.268
1974.03     72.737   -71.164
2002.74     72.875   -80.303
2031.87     73.035   -88.470
2061.43     73.285   -95.757
2091.41     73.678  -102.625
2121.83     74.221  -109.674
2152.69     74.848  -117.394
2184.01     75.471  -126.106
2215.77     75.993  -135.723
2248.00     76.338  -145.837
2280.70     76.465  -155.942
2313.87     76.370  -165.509
2347.53     76.077  -173.943
2381.68     75.671   179.268
2416.32     75.268   174.273
2451.46     74.995   170.667
2487.12     74.902   167.630
2523.30     74.945   164.385
2560.00     75.031   160.706
2597.24     75.092   156.818
2635.01     75.125   153.036
2673.34     75.159   149.463
2712.23     75.213   145.962
2751.68     75.273   142.345
2791.70     75.307   138.669
2832.31     75.302   135.221
2873.50     75.303   132.135
2915.30     75.368   129.254
2957.70     75.503   126.038
3000.72     75.642   122.079
3044.37     75.683   117.484
3088.65     75.574   112.799
3133.58     75.337   108.670
3179.16     75.059   105.298
3225.40     74.799   102.422
3272.31     74.536    99.656
3319.91     74.217    97.069
3368.20     73.844    95.138
3417.19     73.480    94.107
3466.89     73.190    93.621
3517.32     72.949    93.393
3568.48     72.737    93.649
3620.39     72.613    94.557
3673.05     72.651    95.644
3726.47     72.823    96.239
3780.67     73.021    96.208
3835.67     73.215    95.919
3891.46     73.418    95.655
3948.06     73.668    95.533
4005.49     74.035    95.354
4063.75     74.543    94.336
4122.86     75.079    91.843
4182.82     75.484    88.086
4243.66     75.706    83.745
4305.39     75.739    79.451
4368.01     75.602    75.786
4431.55     75.391    73.308
4496.01     75.249    71.909
4561.40     75.230    70.735
4627.75     75.269    69.305
4695.06     75.326    67.548
4763.35     75.350    65.538
4832.64     75.324    63.640
4902.93     75.290    61.954
4974.24     75.244    60.353
5046.60     75.187    59.143
5120.00     75.198    58.179
5194.47     75.239    56.823
5270.03     75.214    55.528
5346.68     75.215    54.825
5424.45     75.310    54.114
5503.35     75.443    53.026
5583.40     75.564    51.678
5664.61     75.679    50.349
5747.01     75.826    48.941
5830.60     75.980    47.193
5915.41     76.113    45.339
6001.45     76.255    43.307
6088.74     76.392    40.926
6177.30     76.476    38.080
6267.15     76.444    35.150
6358.31     76.333    32.765
6450.80     76.232    30.849
6544.62     76.147    29.149
6639.82     76.082    27.590
6736.40     76.060    26.065
6834.38     76.036    24.199
6933.79     75.970    22.450
7034.64     75.954    20.708
7136.96     75.928    18.318
7240.77     75.762    15.641
7346.09     75.490    13.366
7452.94     75.081    11.486
7561.35     74.564    11.533
7671.33     74.259    13.471
7782.91     74.239    15.579
7896.12     74.439    17.514
8010.97     74.898    17.862
8127.49     75.262    16.377
8245.71     75.501    14.038
8365.65     75.611    11.220
8487.33     75.564     7.859
8610.78     75.419     4.621
8736.03     75.120     0.749
8863.09     74.606    -2.795
8992.01     73.932    -5.317
9122.80     73.207    -6.673
9255.50     72.579    -6.713
9390.12     72.041    -6.533
9526.70     71.586    -5.913
9665.27     71.302    -4.963
9805.86     71.139    -4.266
9948.49     71.096    -4.239
10093.2     71.038    -4.162
10240.0     71.143    -4.116
10388.9     71.179    -4.990
10540.1     71.288    -5.272
10693.4     71.481    -6.972
10848.9     71.490    -9.640
11006.7     71.289   -12.164
11166.8     71.037   -13.160
11329.2     70.917   -13.788
11494.0     70.868   -14.792
11661.2     70.729   -16.117
11830.8     70.701   -16.739
12002.9     70.773   -18.376
12177.5     70.847   -21.144
12354.6     70.745   -25.145
12534.3     70.410   -29.418
12716.6     69.939   -33.274
12901.6     69.163   -37.515
13089.2     68.164   -39.317
13279.6     67.143   -39.494
13472.8     66.260   -37.897
13668.8     65.488   -36.299
13867.6     64.572   -34.754
14069.3     63.534   -30.100
14273.9     62.769   -23.714
14481.5     62.079   -14.860
14692.2     62.325    -2.168
14905.9     63.664     5.149
15122.7     64.843     5.519
15342.7     65.530     3.924
15565.8     65.875     2.683
15792.2     66.292     1.421
16021.9     66.706    -0.656
16255.0     66.965    -4.642
16491.4     66.808    -9.038
16731.3     66.483   -11.265
16974.7     66.326   -13.583
17221.6     65.872   -17.273
17472.1     65.123   -18.115
17726.2     64.717   -18.447
17984.0     64.017   -20.545
18245.6     62.786   -19.254
18511.0     61.936   -11.532
18780.2     62.176    -4.545
19053.4     62.488    -1.322
19330.5     62.974     1.971
19611.7     63.845     0.251
19897.0     63.822    -4.923
20186.4     63.414    -6.796
20480.0     62.997    -7.450
20777.9     62.521    -6.239
21080.1     62.625    -2.802
21386.7     63.107    -4.710
21697.8     62.892    -8.712
22013.4     62.589   -10.078
22333.6     62.098   -13.244
22658.4     61.436   -11.588
22988.0     61.539   -12.106
23322.4     61.085   -14.974
23661.6     60.588   -16.849
24005.8     59.737   -19.317
24355.0     58.628   -18.354
24709.2     57.780   -14.447
25068.6     57.382   -10.292
25433.2     57.220    -6.821
25803.2     57.250    -5.169
26178.5     57.140    -4.522
26559.3     57.180    -4.075
26945.6     56.994    -4.208
27337.5     56.853    -3.139
27735.2     56.943    -0.914
28138.6     57.367    -1.104
28547.9     57.597    -3.066
28963.1     57.641    -7.043
29384.4     57.252    -9.276
29811.8     56.934   -11.242
30245.4     56.584   -13.296
30685.3     56.014   -16.143
31131.7     55.220   -16.382
31584.5     54.632   -15.657
32043.9     54.640   -15.009
32510.0     54.455   -21.300
32982.8     53.716   -27.457
33462.6     52.838   -33.658
33949.3     51.516   -42.733
34443.1     49.943   -49.835
34944.1     47.361   -64.266
35452.4     42.476   -68.065
35968.0     38.091   -55.747
36491.2     34.642   -34.096
37022.0     33.294    -6.965
37560.5     34.013    17.449
38106.8     35.027    24.944
38661.1     35.096    27.817
39223.4     35.222    32.280
39793.9     35.028    32.346
