Freq[Hz]     dBSPL  Phase[Deg]
5.00000     -1.449    47.341
5.07273     -0.993    49.075
5.14651     -0.643    50.335
5.22137     -0.585    50.270
5.29732     -0.528    50.206
5.37437     -0.470    50.142
5.45254     -0.413    50.078
5.53185     -0.672    50.385
5.61231     -1.268    51.085
5.69394     -1.864    51.785
5.77676     -2.459    52.485
5.86079     -3.063    53.346
5.94604     -4.158    63.638
6.03252     -5.253    73.930
6.12027     -6.348    84.223
6.20929     -7.442    94.515
6.29961     -6.502   105.671
6.39124     -5.110   117.020
6.48420     -3.718   128.368
6.57851     -2.325   139.717
6.67420     -1.260   141.020
6.77128     -0.247   140.691
6.86977      0.765   140.363
6.96969      1.666   139.716
7.07107      1.718   136.642
7.17392      1.769   133.569
7.27827      1.821   130.495
7.38413      1.067   127.072
7.49154     -0.309   123.379
7.60050     -1.684   119.686
7.71105     -3.385   124.847
7.82321     -6.513   168.899
7.93701     -9.641  -147.050
8.05245    -12.768  -102.998
8.16958     -8.294  -102.891
8.28841     -3.535  -104.426
8.40896      1.224  -105.961
8.53128      2.748  -112.184
8.65537      3.855  -119.012
8.78126      4.962  -125.841
8.90899      4.440  -137.084
9.03857      3.812  -148.616
9.17004      3.202  -163.047
9.30342      2.737   159.450
9.43874      2.272   121.947
9.57603      3.521    90.879
9.71532      7.389    69.645
9.85663     11.257    48.411
10.0000     13.920    36.903
10.1455     16.246    28.103
10.2930     18.335    19.973
10.4427     19.761    13.710
10.5946     21.188     7.448
10.7487     22.181     2.503
10.9051     23.087    -2.179
11.0637     23.830    -6.042
11.2246     24.398    -9.038
11.3879     24.934   -11.638
11.5535     25.345   -12.792
11.7216     25.756   -13.923
11.8921     26.187   -13.661
12.0650     26.619   -13.399
12.2405     27.129   -12.814
12.4186     27.649   -12.186
12.5992     28.174   -11.836
12.7825     28.700   -11.547
12.9684     29.148   -11.339
13.1570     29.579   -11.150
13.3484     29.929   -10.394
13.5426     30.266    -9.545
13.7395     30.644    -7.665
13.9394     31.045    -5.703
14.1421     31.615    -3.418
14.3478     32.238    -1.442
14.5565     32.974    -0.128
14.7683     33.703     0.347
14.9831     34.426     0.176
15.2010     35.010    -0.760
15.4221     35.533    -1.791
15.6464     35.895    -2.668
15.8740     36.204    -2.893
16.1049     36.473    -2.599
16.3392     36.855    -1.061
16.5768     37.352     0.532
16.8179     38.011     2.138
17.0626     38.828     2.376
17.3107     39.648     1.690
17.5625     40.439    -0.137
17.8180     41.028    -3.017
18.0771     41.465    -5.921
18.3401     41.747    -8.627
18.6068     41.849   -10.117
18.8775     41.959    -9.980
19.1521     42.189    -8.655
19.4306     42.629    -6.435
19.7133     43.427    -4.775
20.0000     44.357    -4.838
20.2909     45.271    -6.438
20.5860     46.065    -9.313
20.8855     46.660   -12.917
21.1893     46.986   -16.294
21.4975     47.146   -18.555
21.8102     47.258   -19.329
22.1274     47.456   -18.690
22.4492     47.852   -17.256
22.7758     48.474   -16.044
23.1071     49.232   -15.938
23.4432     49.977   -17.106
23.7841     50.595   -19.062
24.1301     51.075   -21.023
24.4811     51.472   -22.483
24.8372     51.867   -23.314
25.1984     52.332   -23.804
25.5649     52.883   -24.458
25.9368     53.473   -25.656
26.3141     54.040   -27.429
26.6968     54.537   -29.506
27.0851     54.964   -31.517
27.4791     55.359   -33.197
27.8788     55.774   -34.554
28.2843     56.237   -35.830
28.6957     56.739   -37.269
29.1131     57.251   -38.955
29.5365     57.747   -40.801
29.9661     58.222   -42.643
30.4020     58.689   -44.366
30.8442     59.172   -45.974
31.2929     59.674   -47.590
31.7480     60.187   -49.293
32.2098     60.694   -51.079
32.6783     61.187   -52.869
33.1536     61.676   -54.596
33.6359     62.172   -56.279
34.1251     62.682   -58.013
34.6215     63.195   -59.881
35.1250     63.704   -61.878
35.6359     64.201   -63.974
36.1543     64.696   -66.128
36.6802     65.193   -68.362
37.2137     65.693   -70.712
37.7550     66.198   -73.170
38.3041     66.708   -75.739
38.8613     67.224   -78.415
39.4265     67.747   -81.220
40.0000     68.272   -84.116
40.5818     68.799   -87.078
41.1721     69.332   -90.147
41.7710     69.856   -93.362
42.3785     70.346   -96.665
42.9949     70.799   -99.837
43.6203     71.242  -102.775
44.2548     71.703  -105.607
44.8985     72.174  -108.594
45.5515     72.624  -111.761
46.2141     73.046  -114.982
46.8863     73.455  -118.219
47.5683     73.865  -121.616
48.2602     74.255  -125.248
48.9621     74.619  -129.025
49.6743     74.966  -132.878
50.3968     75.302  -136.831
51.1299     75.624  -140.898
51.8736     75.928  -145.034
52.6281     76.214  -149.201
53.3936     76.483  -153.388
54.1702     76.735  -157.581
54.9581     76.968  -161.780
55.7575     77.180  -165.999
56.5685     77.366  -170.225
57.3914     77.526  -174.463
58.2261     77.656  -178.704
59.0730     77.747   177.153
59.9323     77.816   173.174
60.8040     77.877   169.328
61.6884     77.935   165.564
62.5857     77.991   161.800
63.4960     78.030   158.030
64.4196     78.050   154.357
65.3566     78.071   150.773
66.3073     78.081   147.219
67.2717     78.077   143.767
68.2502     78.062   140.442
69.2429     78.038   137.263
70.2501     78.015   134.251
71.2719     77.998   131.311
72.3086     77.984   128.361
73.3603     77.959   125.387
74.4274     77.922   122.448
75.5099     77.873   119.503
76.6083     77.785   116.678
77.7226     77.696   114.247
78.8531     77.643   111.896
80.0000     77.593   109.591
81.1636     77.579   107.324
82.3442     77.579   104.847
83.5419     77.577   102.341
84.7570     77.574    99.805
85.9899     77.564    97.352
87.2406     77.542    94.958
88.5096     77.510    92.753
89.7970     77.500    90.562
91.1031     77.484    88.122
92.4282     77.430    85.553
93.7726     77.335    83.028
95.1366     77.204    80.844
96.5204     77.103    79.087
97.9243     77.035    77.471
99.3486     77.003    75.934
100.794     76.998    74.332
102.260     77.017    72.612
103.747     77.041    70.745
105.256     77.063    68.753
106.787     77.073    66.707
108.340     77.066    64.583
109.916     77.010    62.551
111.515     76.951    60.937
113.137     76.933    59.430
114.783     76.941    57.814
116.452     76.955    56.077
118.146     76.972    54.270
119.865     76.987    52.463
121.608     77.013    50.697
123.377     77.048    48.867
125.171     77.083    46.969
126.992     77.116    45.027
128.839     77.147    43.047
130.713     77.167    40.930
132.615     77.151    38.779
134.543     77.110    36.750
136.500     77.089    34.838
138.486     77.091    33.068
140.500     77.099    31.054
142.544     77.107    28.673
144.617     77.042    26.441
146.721     76.947    24.952
148.855     76.965    23.557
151.020     77.055    21.350
153.217     77.040    18.251
155.445     76.857    15.867
157.706     76.750    14.039
160.000     76.546    12.050
162.327     76.403    11.387
164.688     76.413    10.453
167.084     76.483     9.520
169.514     76.707     6.350
171.980     76.407     2.215
174.481     76.013     1.347
177.019     75.877     1.266
179.594     75.830     0.401
182.206     75.773    -0.458
184.856     75.747    -0.686
187.545     75.840    -1.267
190.273     76.013    -2.395
193.041     76.195    -4.472
195.849     76.229    -6.880
198.697     76.241    -9.094
201.587     76.250   -11.471
204.520     76.142   -14.114
207.494     76.030   -15.700
210.512     75.928   -17.534
213.574     75.945   -19.900
216.681     75.593   -22.060
219.833     75.514   -22.394
223.030     75.429   -24.320
226.274     75.266   -25.704
229.565     75.137   -26.673
232.905     74.976   -27.885
236.292     74.849   -27.753
239.729     74.818   -28.004
243.216     74.909   -28.421
246.754     75.032   -29.370
250.343     75.047   -31.178
253.984     75.062   -31.821
257.678     75.216   -33.653
261.426     75.250   -35.521
265.229     75.355   -38.110
269.087     75.136   -41.616
273.001     74.855   -42.359
276.972     74.839   -42.618
281.000     74.855   -43.362
285.088     74.993   -44.769
289.234     75.093   -46.941
293.441     75.044   -48.370
297.709     75.181   -50.812
302.040     75.138   -53.488
306.433     74.947   -56.990
310.890     74.626   -57.717
315.412     74.753   -59.292
320.000     74.697   -62.082
324.655     74.456   -66.529
329.377     73.983   -66.695
334.168     73.955   -67.831
339.028     73.821   -69.135
343.959     73.837   -70.584
348.962     73.795   -72.784
354.038     73.739   -74.744
359.188     73.715   -76.919
364.412     73.682   -80.623
369.713     73.253   -84.049
375.090     73.023   -85.110
380.546     72.942   -86.521
386.081     72.868   -88.182
391.697     72.940   -90.215
397.394     72.876   -93.189
403.175     72.826   -96.663
409.039     72.508   -99.605
414.989     72.446  -101.774
421.025     72.330  -104.354
427.149     72.246  -107.261
433.362     72.180  -110.063
439.665     72.087  -113.176
446.060     71.894  -117.303
452.548     71.568  -120.987
459.131     71.311  -124.207
465.809     70.952  -127.525
472.584     70.655  -130.371
479.458     70.270  -133.220
486.432     69.910  -135.478
493.507     69.523  -137.784
500.686     69.088  -139.693
507.968     68.674  -140.868
515.357     68.270  -141.542
522.853     67.883  -141.679
530.458     67.571  -141.066
538.174     67.356  -139.813
546.002     67.222  -138.125
553.943     67.228  -136.104
562.001     67.385  -134.021
570.175     67.681  -132.237
578.469     68.114  -130.977
586.883     68.625  -130.360
595.419     69.187  -130.611
604.080     69.779  -131.644
612.866     70.386  -133.392
621.780     70.978  -135.746
630.824     71.538  -138.900
640.000     72.070  -142.426
649.309     72.545  -146.348
658.753     72.982  -150.664
668.335     73.370  -155.408
678.056     73.701  -160.432
687.919     73.980  -165.692
697.925     74.195  -171.275
708.077     74.359  -176.993
718.376     74.471   177.108
728.825     74.518   170.996
739.426     74.523   164.724
750.181     74.476   158.377
761.093     74.377   152.004
772.163     74.221   145.828
783.394     73.989   139.733
794.789     73.681   133.606
806.349     73.319   127.683
818.078     72.891   122.077
829.977     72.400   116.726
842.050     71.852   111.912
854.298     71.255   107.599
866.724     70.627   104.020
879.330     70.004   101.038
892.120     69.420    98.930
905.097     68.920    97.563
918.262     68.536    96.669
931.618     68.319    95.950
945.169     68.251    95.017
958.917     68.311    93.499
972.864     68.440    91.174
987.015     68.601    87.855
1001.37     68.759    83.659
1015.94     68.871    78.781
1030.71     68.908    73.391
1045.71     68.861    67.550
1060.92     68.729    61.273
1076.35     68.501    55.134
1092.00     68.187    48.937
1107.89     67.799    42.931
1124.00     67.359    37.293
1140.35     66.881    32.023
1156.94     66.395    27.327
1173.77     65.934    22.872
1190.84     65.556    18.759
1208.16     65.251    14.537
1225.73     65.013    10.083
1243.56     64.822     4.937
1261.65     64.655    -0.920
1280.00     64.454    -7.437
1298.62     64.188   -14.601
1317.51     63.833   -22.143
1336.67     63.344   -30.073
1356.11     62.725   -37.790
1375.84     61.963   -45.287
1395.85     61.088   -52.059
1416.15     60.176   -57.440
1436.75     59.285   -61.099
1457.65     58.518   -63.373
1478.85     58.068   -64.502
1500.36     57.945   -65.664
1522.19     58.147   -67.731
1544.33     58.433   -71.173
1566.79     58.744   -76.211
1589.58     59.022   -82.120
1612.70     59.208   -88.122
1636.16     59.287   -94.020
1659.95     59.317   -99.120
1684.10     59.370  -103.401
1708.60     59.546  -106.632
1733.45     59.907  -109.255
1758.66     60.485  -111.964
1784.24     61.239  -115.401
1810.19     62.099  -119.945
1836.52     62.985  -125.782
1863.24     63.793  -132.717
1890.34     64.494  -140.480
1917.83     65.050  -148.545
1945.73     65.439  -156.650
1974.03     65.705  -164.457
2002.74     65.883  -171.552
2031.87     66.038  -177.860
2061.43     66.242   176.348
2091.41     66.546   170.477
2121.83     66.903   163.924
2152.69     67.227   156.363
2184.01     67.407   147.750
2215.77     67.335   138.467
2248.00     66.956   129.313
2280.70     66.236   121.216
2313.87     65.232   115.416
2347.53     64.127   113.129
2381.68     63.283   114.501
2416.32     63.034   117.441
2451.46     63.298   119.091
2487.12     63.723   118.179
2523.30     64.073   115.427
2560.00     64.287   112.054
2597.24     64.415   108.596
2635.01     64.517   105.095
2673.34     64.587   101.223
2712.23     64.591    96.991
2751.68     64.472    92.595
2791.70     64.234    88.378
2832.31     63.897    84.706
2873.50     63.513    81.523
2915.30     63.070    78.880
2957.70     62.546    76.727
3000.72     61.915    75.602
3044.37     61.216    76.505
3088.65     60.694    80.132
3133.58     60.723    85.358
3179.16     61.312    88.872
3225.40     62.055    89.033
3272.31     62.584    86.822
3319.91     62.880    84.439
3368.20     63.121    82.648
3417.19     63.436    80.658
3466.89     63.729    77.653
3517.32     63.878    74.217
3568.48     63.899    71.369
3620.39     63.960    69.023
3673.05     64.052    66.389
3726.47     64.060    63.433
3780.67     64.004    60.971
3835.67     64.024    58.805
3891.46     64.069    55.915
3948.06     63.939    52.431
4005.49     63.611    49.887
4063.75     63.297    49.013
4122.86     63.126    48.839
4182.82     63.100    48.967
4243.66     63.252    48.939
4305.39     63.521    47.635
4368.01     63.670    44.936
4431.55     63.633    42.422
4496.01     63.547    40.739
4561.40     63.533    39.667
4627.75     63.662    38.553
4695.06     63.849    36.195
4763.35     63.854    33.095
4832.64     63.742    30.919
4902.93     63.768    28.931
4974.24     63.723    25.739
5046.60     63.448    23.009
5120.00     63.128    21.564
5194.47     62.833    21.115
5270.03     62.716    21.887
5346.68     62.868    22.019
5424.45     63.027    21.296
5503.35     63.320    20.241
5583.40     63.601    17.079
5664.61     63.599    13.575
5747.01     63.574    10.643
5830.60     63.468     7.339
5915.41     63.288     4.526
6001.45     63.060     1.419
6088.74     62.643    -0.671
6177.30     62.338    -1.662
6267.15     62.090    -2.637
6358.31     61.913    -3.323
6450.80     61.766    -4.650
6544.62     61.526    -6.030
6639.82     61.143    -6.356
6736.40     61.027    -5.031
6834.38     61.060    -5.111
6933.79     61.187    -4.341
7034.64     61.591    -5.632
7136.96     61.940    -8.538
7240.77     62.090   -14.452
7346.09     61.671   -20.041
7452.94     60.944   -24.615
7561.35     59.880   -24.955
7671.33     59.407   -22.084
7782.91     59.340   -20.315
7896.12     59.409   -20.414
8010.97     59.410   -21.913
8127.49     58.978   -24.028
8245.71     58.524   -22.263
8365.65     58.768   -19.468
8487.33     59.355   -22.635
8610.78     59.472   -29.273
8736.03     58.777   -37.521
8863.09     57.682   -42.838
8992.01     56.210   -45.456
9122.80     55.018   -45.328
9255.50     53.998   -43.853
9390.12     53.136   -43.338
9526.70     52.383   -43.679
9665.27     51.340   -44.152
9805.86     49.860   -44.289
9948.49     48.227   -37.824
10093.2     47.321   -26.468
10240.0     47.784   -15.156
10388.9     48.218   -12.173
10540.1     48.347    -6.859
10693.4     49.247    -2.431
10848.9     50.087    -4.677
11006.7     49.881    -9.338
11166.8     49.072    -9.024
11329.2     48.866    -2.912
11494.0     49.444    -0.118
11661.2     49.583    -2.188
11830.8     49.409    -0.787
12002.9     49.749    -0.046
12177.5     50.096    -3.152
12354.6     49.648    -9.716
12534.3     48.199   -13.484
12716.6     46.337   -10.193
12901.6     44.602     2.211
13089.2     44.700    21.356
13279.6     46.525    32.118
13472.8     47.891    33.690
13668.8     48.894    33.781
13867.6     49.645    31.082
14069.3     49.716    29.523
14273.9     49.665    30.284
14481.5     50.040    33.397
14692.2     50.923    34.508
14905.9     51.529    31.738
15122.7     51.897    29.302
15342.7     52.521    26.982
15565.8     53.019    20.926
15792.2     52.771    12.511
16021.9     52.109     8.665
16255.0     51.605     6.003
16491.4     51.150     1.759
16731.3     50.097    -1.810
16974.7     48.881    -1.625
17221.6     47.760     0.542
17472.1     46.364     9.423
17726.2     47.381    20.835
17984.0     48.135    20.166
18245.6     48.162    20.704
18511.0     48.631    23.901
18780.2     49.472    21.437
19053.4     49.786    18.462
19330.5     50.198    14.462
19611.7     50.230     8.648
19897.0     50.104     4.208
20186.4     49.781    -3.201
20480.0     48.672    -8.007
20777.9     47.853    -8.062
21080.1     47.639    -9.978
21386.7     46.959   -14.127
21697.8     46.624   -19.769
22013.4     45.134   -29.614
22333.6     42.688   -34.695
22658.4     39.772   -34.839
22988.0     36.924   -23.942
23322.4     34.904   -14.460
23661.6     32.860     3.928
24005.8     32.874  -149.005
24355.0     34.106    44.069
24709.2     36.503    49.268
25068.6     37.919    46.645
25433.2     38.361    42.685
25803.2     38.974    37.570
26178.5     39.058    29.533
26559.3     38.535    23.922
26945.6     38.169    25.548
27337.5     38.314    23.602
27735.2     38.532    16.395
28138.6     38.104     6.990
28547.9     36.614    -0.378
28963.1     35.380    -4.396
29384.4     34.098    -9.131
29811.8     31.050   -19.140
30245.4     27.129    -3.701
30685.3     27.019    17.872
31131.7     26.990     8.835
31584.5     22.824    15.502
32043.9     23.049  -106.899
32510.0     22.527   171.775
32982.8     19.193   149.956
33462.6     20.730   -78.224
33949.3     26.121    87.020
34443.1     29.554    68.033
34944.1     30.860    29.222
35452.4     24.068    74.034
35968.0     17.647   -63.774
36491.2     18.941   154.378
37022.0     18.901     6.980
37560.5     18.300    99.427
38106.8     17.676    -2.807
38661.1     17.274   159.092
39223.4     17.471   -50.915
39793.9     15.504   177.505
