Freq[Hz]     dBSPL  Phase[Deg]
5.00000     -2.495    72.879
5.07273     -2.039    74.988
5.14651     -1.689    76.629
5.22137     -1.632    76.967
5.29732     -1.574    77.305
5.37437     -1.517    77.643
5.45254     -1.459    77.982
5.53185     -1.720    78.704
5.61231     -2.316    79.834
5.69394     -2.912    80.964
5.77676     -3.509    82.093
5.86079     -4.113    83.384
5.94604     -5.209    94.132
6.03252     -6.305   104.881
6.12027     -7.401   115.629
6.20929     -8.497   126.377
6.29961     -7.558   138.011
6.39124     -6.167   149.842
6.48420     -4.777   161.672
6.57851     -3.386   173.502
6.67420     -2.323   175.309
6.77128     -1.312   175.488
6.86977     -0.302   175.666
6.96969      0.597   175.529
7.07107      0.646   172.987
7.17392      0.695   170.445
7.27827      0.745   167.903
7.38413     -0.012   165.025
7.49154     -1.390   161.888
7.60050     -2.768   158.750
7.71105     -4.472   164.472
7.82321     -7.602  -150.897
7.93701    -10.733  -106.267
8.05245    -13.863   -61.636
8.16958     -9.391   -60.927
8.28841     -4.635   -61.859
8.40896      0.121   -62.791
8.53128      1.643   -68.390
8.65537      2.747   -74.592
8.78126      3.851   -80.794
8.90899      3.327   -91.389
9.03857      2.696  -102.271
9.17004      2.084  -116.048
9.30342      1.617  -152.877
9.43874      1.150   170.294
9.57603      2.398   139.911
9.71532      6.264   119.376
9.85663     10.131    98.841
10.0000     12.792    88.052
10.1455     15.117    79.977
10.2930     17.205    72.579
10.4427     18.630    67.068
10.5946     20.056    61.557
10.7487     21.049    57.386
10.9051     21.956    53.482
11.0637     22.699    50.412
11.2246     23.268    48.222
11.3879     23.804    46.436
11.5535     24.216    46.117
11.7216     24.628    45.823
11.8921     25.061    46.951
12.0650     25.494    48.078
12.2405     26.005    49.556
12.4186     26.526    51.080
12.5992     27.053    52.352
12.7825     27.580    53.568
12.9684     28.031    54.728
13.1570     28.463    55.875
13.3484     28.815    57.616
13.5426     29.154    59.454
13.7395     29.533    62.353
13.9394     29.934    65.339
14.1421     30.505    68.673
14.3478     31.128    71.710
14.5565     31.864    74.103
14.7683     32.593    75.675
14.9831     33.316    76.612
15.2010     33.898    76.808
15.4221     34.420    76.919
15.6464     34.779    77.205
15.8740     35.087    78.156
16.1049     35.352    79.639
16.3392     35.731    82.389
16.5768     36.225    85.204
16.8179     36.878    88.046
17.0626     37.691    89.541
17.3107     38.506    90.122
17.5625     39.293    89.577
17.8180     39.876    87.999
18.0771     40.308    86.410
18.3401     40.586    85.032
18.6068     40.682    84.891
18.8775     40.787    86.393
19.1521     41.012    89.098
19.4306     41.448    92.716
19.7133     42.242    95.795
20.0000     43.169    97.171
20.2909     44.079    97.030
20.5860     44.870    95.633
20.8855     45.463    93.529
21.1893     45.786    91.679
21.4975     45.944    90.969
21.8102     46.053    91.769
22.1274     46.250    94.007
22.4492     46.645    97.065
22.7758     47.266    99.926
23.1071     48.021   101.707
23.4432     48.763   102.242
23.7841     49.379   102.015
24.1301     49.855   101.810
24.4811     50.247   102.131
24.8372     50.639   103.106
25.1984     51.099   104.448
25.5649     51.643   105.649
25.9368     52.227   106.330
26.3141     52.787   106.459
26.6968     53.277   106.308
27.0851     53.697   106.245
27.4791     54.082   106.536
27.8788     54.489   107.174
28.2843     54.944   107.913
28.6957     55.437   108.511
29.1131     55.940   108.883
29.5365     56.428   109.116
29.9661     56.896   109.374
30.4020     57.357   109.771
30.8442     57.836   110.309
31.2929     58.336   110.861
31.7480     58.849   111.351
32.2098     59.359   111.786
32.6783     59.859   112.255
33.1536     60.359   112.828
33.6359     60.868   113.489
34.1251     61.396   114.160
34.6215     61.933   114.763
35.1250     62.465   115.308
35.6359     62.988   115.844
36.1543     63.507   116.408
36.6802     64.026   116.985
37.2137     64.542   117.541
37.7550     65.054   118.070
38.3041     65.560   118.566
38.8613     66.061   119.007
39.4265     66.554   119.354
40.0000     67.034   119.614
40.5818     67.505   119.787
41.1721     67.970   119.806
41.7710     68.420   119.615
42.3785     68.835   119.252
42.9949     69.217   118.941
43.6203     69.598   118.800
44.2548     70.013   118.720
44.8985     70.457   118.481
45.5515     70.898   118.100
46.2141     71.330   117.745
46.8863     71.764   117.494
47.5683     72.209   117.233
48.2602     72.639   116.899
48.9621     73.037   116.572
49.6743     73.410   116.302
50.3968     73.761   116.032
51.1299     74.083   115.708
51.8736     74.376   115.341
52.6281     74.642   114.938
53.3936     74.888   114.499
54.1702     75.119   114.040
54.9581     75.335   113.579
55.7575     75.539   113.131
56.5685     75.726   112.734
57.3914     75.891   112.405
58.2261     76.028   112.164
59.0730     76.126   112.111
59.9323     76.199   112.296
60.8040     76.262   112.675
61.6884     76.319   113.185
62.5857     76.374   113.740
63.4960     76.414   114.341
64.4196     76.438   115.103
65.3566     76.463   116.030
66.3073     76.477   117.065
67.2717     76.474   118.278
68.2502     76.459   119.678
69.2429     76.431   121.270
70.2501     76.404   123.069
71.2719     76.387   124.983
72.3086     76.376   126.947
73.3603     76.360   128.967
74.4274     76.334   131.119
75.5099     76.295   133.369
76.6083     76.214   135.830
77.7226     76.127   138.760
78.8531     76.071   141.822
80.0000     76.018   144.973
81.1636     76.004   148.207
82.3442     76.006   151.289
83.5419     76.010   154.416
84.7570     76.017   157.599
85.9899     76.017   160.956
87.2406     76.007   164.462
88.5096     75.987   168.242
89.7970     75.988   172.116
91.1031     75.984   175.823
92.4282     75.943   179.477
93.7726     75.863  -176.742
95.1366     75.749  -172.528
96.5204     75.668  -167.786
97.9243     75.621  -162.795
99.3486     75.609  -157.615
100.794     75.620  -152.399
102.260     75.652  -147.212
103.747     75.688  -142.094
105.256     75.721  -137.032
106.787     75.742  -131.956
108.340     75.751  -126.881
109.916     75.716  -121.622
111.515     75.682  -115.835
113.137     75.691  -109.821
114.783     75.726  -103.801
116.452     75.768   -97.798
118.146     75.816   -91.753
119.865     75.864   -85.574
121.608     75.921   -79.204
123.377     75.978   -72.778
125.171     76.026   -66.364
126.992     76.075   -59.975
128.839     76.136   -53.559
130.713     76.201   -47.118
132.615     76.234   -40.496
134.543     76.232   -33.400
136.500     76.242   -26.007
138.486     76.272   -19.370
140.500     76.313   -12.160
142.544     76.360    -4.479
144.617     76.331     2.497
146.721     76.273    10.191
148.855     76.337    18.813
151.020     76.475    26.651
153.217     76.504    33.617
155.445     76.361    41.289
157.706     76.290    49.489
160.000     76.126    58.321
162.327     76.027    68.455
164.688     76.081    77.500
167.084     76.195    87.408
169.514     76.459    95.877
171.980     76.201   103.302
174.481     75.856   113.171
177.019     75.767   123.897
179.594     75.756   134.667
182.206     75.733   146.148
184.856     75.755   158.196
187.545     75.901   169.125
190.273     76.126  -179.628
193.041     76.355  -169.328
195.849     76.432  -159.355
198.697     76.478  -148.389
201.587     76.517  -137.674
204.520     76.448  -127.279
207.494     76.379  -115.796
210.512     76.314  -103.724
213.574     76.362   -92.249
216.681     76.047   -81.409
219.833     76.002   -67.868
223.030     75.939   -55.161
226.274     75.807   -41.980
229.565     75.704   -28.274
232.905     75.542   -14.909
236.292     75.431    -0.372
239.729     75.429    14.778
243.216     75.507    29.770
246.754     75.622    43.940
250.343     75.657    58.178
253.984     75.656    73.694
257.678     75.787    87.771
261.426     75.826   102.691
265.229     75.910   117.052
269.087     75.656   130.410
273.001     75.335   146.609
276.972     75.247   163.307
281.000     75.183  -179.796
285.088     75.226  -162.610
289.234     75.185  -146.256
293.441     75.001  -129.396
297.709     75.022  -113.354
302.040     74.824   -97.316
306.433     74.432   -81.406
310.890     73.913   -61.875
315.412     73.813   -42.912
320.000     73.494   -25.101
324.655     72.962    -8.851
329.377     72.188    11.737
334.168     71.837    33.346
339.028     71.338    55.176
343.959     70.973    77.093
348.962     70.528    98.640
354.038     70.082   120.704
359.188     69.666   144.084
364.412     69.246   167.312
369.713     68.478  -168.582
375.090     67.983  -141.575
380.546     67.705  -113.505
386.081     67.569   -85.464
391.697     67.709   -56.658
397.394     67.855   -27.919
403.175     68.136    -1.094
409.039     68.254    26.779
414.989     68.724    55.684
421.025     69.199    83.442
427.149     69.724   110.399
433.362     70.280   136.617
439.665     70.855   163.779
446.060     71.336  -170.532
452.548     71.648  -144.910
459.131     72.036  -118.449
465.809     72.331   -91.740
472.584     72.662   -64.946
479.458     72.897   -38.672
486.432     73.150   -11.305
493.507     73.365    16.249
500.686     73.520    44.393
507.968     73.656    72.718
515.357     73.757   100.927
522.853     73.822   129.863
530.458     73.856   159.524
538.174     73.860  -170.923
546.002     73.815  -141.265
553.943     73.730  -110.957
562.001     73.599   -79.890
570.175     73.414   -48.146
578.469     73.172   -15.749
586.883     72.884    16.545
595.419     72.529    48.824
604.080     72.115    81.661
612.866     71.619   115.095
621.780     71.032   149.046
630.824     70.359  -176.493
640.000     69.592  -142.270
649.309     68.709  -108.406
658.753     67.707   -74.337
668.335     66.520   -39.579
678.056     65.179    -5.621
687.919     63.588    27.747
697.925     61.679    59.301
708.077     59.498    86.402
718.376     57.450   106.039
728.825     56.753   118.269
739.426     58.177   133.161
750.181     60.463   159.820
761.093     62.432  -165.900
772.163     64.029  -127.952
783.394     65.242   -87.280
794.789     66.217   -44.674
806.349     67.028    -1.095
818.078     67.625    43.842
829.977     68.083    89.816
842.050     68.404   136.863
854.298     68.623  -174.901
866.724     68.708  -126.240
879.330     68.687   -75.784
892.120     68.562   -24.000
905.097     68.327    28.982
918.262     68.000    83.438
931.618     67.595   139.402
945.169     67.111  -162.963
958.917     66.614  -103.620
972.864     66.136   -42.285
987.015     65.724    20.791
1001.37     65.464    86.216
1015.94     65.390   152.764
1030.71     65.484  -141.010
1045.71     65.719   -73.952
1060.92     66.021    -6.271
1076.35     66.318    60.257
1092.00     66.564   126.584
1107.89     66.729  -166.186
1124.00     66.772   -98.720
1140.35     66.688   -30.678
1156.94     66.445    38.801
1173.77     66.068   109.202
1190.84     65.560  -179.227
1208.16     64.943  -106.141
1225.73     64.233   -30.616
1243.56     63.497    47.457
1261.65     62.804   127.376
1280.00     62.222  -151.206
1298.62     61.763   -68.789
1317.51     61.429    14.829
1336.67     61.117    99.524
1356.11     60.750  -175.840
1375.84     60.280   -90.028
1395.85     59.634    -2.175
1416.15     58.795    87.357
1436.75     57.936   179.888
1457.65     57.211   -83.362
1478.85     56.935    16.947
1500.36     57.276   117.534
1522.19     58.016  -142.875
1544.33     58.883   -45.058
1566.79     59.643    52.072
1589.58     60.143   149.306
1612.70     60.437  -113.185
1636.16     60.511   -13.466
1659.95     60.464    88.820
1684.10     60.423  -165.819
1708.60     60.551   -57.849
1733.45     60.908    51.234
1758.66     61.465   161.937
1784.24     62.070   -87.206
1810.19     62.595    23.424
1836.52     62.941   135.670
1863.24     63.055  -110.399
1890.34     62.957     5.908
1917.83     62.711   125.306
1945.73     62.432  -111.832
1974.03     62.258    15.171
2002.74     62.296   144.648
2031.87     62.534   -84.332
2061.43     62.874    47.682
2091.41     63.188  -178.647
2121.83     63.480   -42.961
2152.69     63.698    93.275
2184.01     63.857  -128.271
2215.77     63.931    12.352
2248.00     63.848   154.458
2280.70     63.574   -61.625
2313.87     63.082    85.651
2347.53     62.423  -122.802
2381.68     61.761    32.828
2416.32     61.354  -167.061
2451.46     61.351    -4.164
2487.12     61.611   159.379
2523.30     61.841   -37.106
2560.00     61.743   127.401
2597.24     61.187   -66.154
2635.01     60.233   105.637
2673.34     59.339   -75.370
2712.23     59.153   108.890
2751.68     59.638   -66.097
2791.70     60.126   117.198
2832.31     60.206   -58.277
2873.50     60.074   129.962
2915.30     60.111   -38.597
2957.70     60.236   154.023
3000.72     59.913   -13.207
3044.37     58.767  -176.175
3088.65     57.402    31.921
3133.58     57.297  -112.844
3179.16     58.053    98.539
3225.40     57.970   -52.409
3272.31     56.816   163.447
3319.91     56.324    31.528
3368.20     57.228  -101.471
3417.19     57.535   119.883
3466.89     56.629   -11.898
3517.32     56.522  -130.282
3568.48     57.811   106.457
3620.39     57.972   -23.083
3673.05     56.256  -141.955
3726.47     55.763   118.739
3780.67     57.634    11.345
3835.67     57.891  -104.542
3891.46     56.537   153.610
3948.06     57.305    63.456
4005.49     58.692   -41.191
4063.75     57.159  -147.450
4122.86     53.513   133.542
4182.82     54.608    69.169
4243.66     55.223   -18.240
4305.39     52.362   -87.427
4368.01     53.965  -136.746
4431.55     55.411   145.628
4496.01     52.276    86.296
4561.40     54.253    57.293
4627.75     57.148    -7.418
4695.06     55.796   -62.598
4763.35     56.509   -93.896
4832.64     58.280  -143.327
4902.93     56.581   174.984
4974.24     56.680   158.310
5046.60     57.941   126.068
5120.00     56.210   104.972
5194.47     57.137   102.379
5270.03     58.082    84.907
5346.68     57.510    81.938
5424.45     58.739    82.855
5503.35     58.429    82.261
5583.40     58.579    97.235
5664.61     59.250   107.422
5747.01     58.404   127.692
5830.60     58.976   154.228
5915.41     58.129  -179.365
6001.45     57.409  -135.300
6088.74     57.167   -93.700
6177.30     56.189   -33.768
6267.15     57.529    26.308
6358.31     57.474    88.742
6450.80     58.591   157.956
6544.62     58.588  -134.866
6639.82     58.367   -54.628
6736.40     57.916    29.185
6834.38     57.149   125.803
6933.79     57.127  -130.459
7034.64     57.469   -20.955
7136.96     57.931    91.252
7240.77     58.226  -153.382
7346.09     57.472   -29.322
7452.94     56.925   101.439
7561.35     55.252  -114.748
7671.33     55.194    38.321
7782.91     54.281  -161.242
7896.12     54.141     3.704
8010.97     53.594  -176.818
8127.49     53.730     5.006
8245.71     54.241  -162.851
8365.65     54.273    31.262
8487.33     54.339  -131.215
8610.78     53.320    80.619
8736.03     51.994   -64.257
8863.09     51.528   167.266
8992.01     49.260    47.888
9122.80     49.201   -68.718
9255.50     48.253  -166.533
9390.12     46.071    93.851
9526.70     45.803     6.867
9665.27     43.255   -61.164
9805.86     40.332  -126.853
9948.49     40.548  -169.839
10093.2     40.297   147.979
10240.0     36.868   114.167
10388.9     33.291   114.174
10540.1     36.959   137.204
10693.4     41.708   131.194
10848.9     42.859   127.800
11006.7     42.865   137.285
11166.8     43.303   158.580
11329.2     43.340  -165.682
11494.0     43.070  -116.854
11661.2     43.278   -57.754
11830.8     43.797    10.776
12002.9     43.867    89.119
12177.5     43.009   179.531
12354.6     42.556   -75.485
12534.3     42.315    43.892
12716.6     42.125   173.471
12901.6     41.697   -43.154
13089.2     41.355   116.557
13279.6     41.686   -70.454
13472.8     42.887   112.693
13668.8     43.938   -58.088
13867.6     44.507   140.305
14069.3     42.265   -10.712
14273.9     39.599  -122.324
14481.5     41.616   142.531
14692.2     43.607    45.360
14905.9     44.685   -46.084
15122.7     44.523  -121.426
15342.7     45.042  -176.907
15565.8     45.300   136.172
15792.2     44.888   103.841
16021.9     44.410    90.190
16255.0     44.052    91.405
16491.4     43.225   108.028
16731.3     41.949   146.220
16974.7     41.401  -157.066
17221.6     39.351   -86.903
17472.1     39.089    40.592
17726.2     43.622   129.907
17984.0     42.720  -118.448
18245.6     41.629    18.875
18511.0     41.404  -177.399
18780.2     42.512    -5.736
19053.4     42.965  -179.434
19330.5     43.174    23.227
19611.7     43.428  -114.270
19897.0     43.527   126.134
20186.4     43.339    24.361
20480.0     42.002   -55.929
20777.9     40.782  -106.013
21080.1     41.030  -140.757
21386.7     39.816  -162.301
21697.8     38.355  -154.501
22013.4     37.062  -135.269
22333.6     35.267   -88.884
22658.4     32.678   -13.923
22988.0     29.692    81.157
23322.4     29.195  -145.445
23661.6     26.933    -9.891
24005.8     20.988     7.241
24355.0     20.644   -67.222
24709.2     26.967   -47.367
25068.6     32.285   179.436
25433.2     31.663    58.025
25803.2     31.752   -33.632
26178.5     31.777  -100.786
26559.3     30.206  -146.881
26945.6     30.549  -141.942
27337.5     32.243  -133.061
27735.2     31.926   -96.568
28138.6     31.078   -21.564
28547.9     29.594    73.409
28963.1     28.720  -165.384
29384.4     25.410   -16.438
29811.8     20.227    89.017
30245.4     14.969    31.624
30685.3     14.312   -49.556
31131.7     20.398   -74.217
31584.5     18.346    23.781
32043.9     19.383  -121.120
32510.0     18.986   -77.221
32982.8     17.800   130.056
33462.6     17.067   -95.984
33949.3     15.451    80.028
34443.1     21.429    -1.913
34944.1     20.530   152.367
35452.4     18.093   -14.751
35968.0     16.548   -71.687
36491.2     15.707  -160.578
37022.0     16.922   -80.502
37560.5     16.937    26.008
38106.8     16.212    67.774
38661.1     14.050    28.205
39223.4     15.545    99.770
39793.9     17.257    11.901
