Freq[Hz]     dBSPL  Phase[Deg]
5.00000     -2.165    46.290
5.07273     -1.708    48.020
5.14651     -1.355    49.276
5.22137     -1.296    49.209
5.29732     -1.236    49.142
5.37437     -1.177    49.075
5.45254     -1.118    49.008
5.53185     -1.375    49.313
5.61231     -1.969    50.011
5.69394     -2.563    50.710
5.77676     -3.156    51.408
5.86079     -3.758    52.266
5.94604     -4.852    62.557
6.03252     -5.945    72.848
6.12027     -7.038    83.138
6.20929     -8.132    93.429
6.29961     -7.189   104.584
6.39124     -5.796   115.930
6.48420     -4.402   127.277
6.57851     -3.009   138.623
6.67420     -1.942   139.924
6.77128     -0.928   139.592
6.86977      0.085   139.261
6.96969      0.987   138.611
7.07107      1.039   135.532
7.17392      1.091   132.454
7.27827      1.143   129.376
7.38413      0.390   125.946
7.49154     -0.985   122.245
7.60050     -2.361   118.545
7.71105     -4.061   123.698
7.82321     -7.188   167.738
7.93701    -10.315  -148.221
8.05245    -13.442  -104.181
8.16958     -8.967  -104.089
8.28841     -4.208  -105.639
8.40896      0.551  -107.190
8.53128      2.076  -113.433
8.65537      3.183  -120.282
8.78126      4.290  -127.131
8.90899      3.769  -138.400
9.03857      3.141  -149.958
9.17004      2.531  -164.416
9.30342      2.067   158.049
9.43874      1.603   120.513
9.57603      2.854    89.412
9.71532      6.724    68.140
9.85663     10.594    46.869
10.0000     13.258    35.318
10.1455     15.587    26.476
10.2930     17.679    18.301
10.4427     19.109    11.991
10.5946     20.539     5.682
10.7487     21.537     0.686
10.9051     22.448    -4.048
11.0637     23.197    -7.963
11.2246     23.772   -11.013
11.3879     24.313   -13.666
11.5535     24.732   -14.875
11.7216     25.151   -16.060
11.8921     25.592   -15.852
12.0650     26.033   -15.643
12.2405     26.553   -15.109
12.4186     27.085   -14.532
12.5992     27.622   -14.228
12.7825     28.160   -13.985
12.9684     28.622   -13.817
13.1570     29.067   -13.667
13.3484     29.433   -12.942
13.5426     29.786   -12.125
13.7395     30.180   -10.266
13.9394     30.597    -8.323
14.1421     31.184    -6.048
14.3478     31.823    -4.078
14.5565     32.577    -2.763
14.7683     33.324    -2.280
14.9831     34.064    -2.439
15.2010     34.665    -3.352
15.4221     35.205    -4.358
15.6464     35.584    -5.201
15.8740     35.910    -5.389
16.1049     36.194    -5.053
16.3392     36.591    -3.467
16.5768     37.103    -1.825
16.8179     37.774    -0.168
17.0626     38.603     0.124
17.3107     39.434    -0.509
17.5625     40.238    -2.283
17.8180     40.836    -5.112
18.0771     41.282    -7.968
18.3401     41.573   -10.629
18.6068     41.683   -12.080
18.8775     41.801   -11.909
19.1521     42.040   -10.555
19.4306     42.488    -8.311
19.7133     43.293    -6.635
20.0000     44.233    -6.687
20.2909     45.156    -8.281
20.5860     45.961   -11.154
20.8855     46.567   -14.760
21.1893     46.906   -18.140
21.4975     47.079   -20.406
21.8102     47.206   -21.184
22.1274     47.421   -20.546
22.4492     47.835   -19.110
22.7758     48.478   -17.891
23.1071     49.255   -17.770
23.4432     50.021   -18.915
23.7841     50.660   -20.841
24.1301     51.162   -22.761
24.4811     51.580   -24.173
24.8372     51.996   -24.948
25.1984     52.482   -25.374
25.5649     53.053   -25.961
25.9368     53.663   -27.087
26.3141     54.247   -28.788
26.6968     54.762   -30.794
27.0851     55.207   -32.737
27.4791     55.617   -34.355
27.8788     56.049   -35.656
28.2843     56.528   -36.886
28.6957     57.047   -38.287
29.1131     57.577   -39.944
29.5365     58.092   -41.768
29.9661     58.588   -43.595
30.4020     59.080   -45.307
30.8442     59.590   -46.906
31.2929     60.122   -48.509
31.7480     60.666   -50.194
32.2098     61.209   -51.952
32.6783     61.741   -53.698
33.1536     62.271   -55.363
33.6359     62.810   -56.965
34.1251     63.365   -58.591
34.6215     63.925   -60.323
35.1250     64.480   -62.157
35.6359     65.023   -64.057
36.1543     65.563   -65.985
36.6802     66.103   -67.964
37.2137     66.644   -70.029
37.7550     67.185   -72.179
38.3041     67.726   -74.420
38.8613     68.269   -76.756
39.4265     68.812   -79.219
40.0000     69.350   -81.782
40.5818     69.885   -84.432
41.1721     70.421   -87.219
41.7710     70.944   -90.192
42.3785     71.432   -93.306
42.9949     71.883   -96.339
43.6203     72.327   -99.188
44.2548     72.796  -101.976
44.8985     73.282  -104.953
45.5515     73.757  -108.125
46.2141     74.213  -111.347
46.8863     74.667  -114.562
47.5683     75.130  -117.893
48.2602     75.579  -121.399
48.9621     76.005  -124.985
49.6743     76.412  -128.579
50.3968     76.806  -132.216
51.1299     77.180  -135.924
51.8736     77.528  -139.677
52.6281     77.852  -143.457
53.3936     78.154  -147.270
54.1702     78.436  -151.107
54.9581     78.698  -154.974
55.7575     78.940  -158.876
56.5685     79.161  -162.791
57.3914     79.358  -166.712
58.2261     79.525  -170.618
59.0730     79.655  -174.405
59.9323     79.762  -178.007
60.8040     79.859   178.538
61.6884     79.952   175.173
62.5857     80.040   171.808
63.4960     80.110   168.434
64.4196     80.163   165.155
65.3566     80.215   161.968
66.3073     80.259   158.818
67.2717     80.287   155.782
68.2502     80.305   152.883
69.2429     80.313   150.134
70.2501     80.319   147.550
71.2719     80.332   145.032
72.3086     80.347   142.496
73.3603     80.355   139.932
74.4274     80.353   137.406
75.5099     80.342   134.888
76.6083     80.293   132.512
77.7226     80.245   130.559
78.8531     80.231   128.713
80.0000     80.220   126.939
81.1636     80.241   125.221
82.3442     80.271   123.299
83.5419     80.296   121.341
84.7570     80.318   119.336
85.9899     80.332   117.391
87.2406     80.338   115.490
88.5096     80.337   113.774
89.7970     80.362   112.082
91.1031     80.384   110.164
92.4282     80.366   108.141
93.7726     80.310   106.182
95.1366     80.215   104.577
96.5204     80.151   103.411
97.9243     80.120   102.402
99.3486     80.125   101.496
100.794     80.153   100.547
102.260     80.201    99.492
103.747     80.251    98.284
105.256     80.296    96.928
106.787     80.331    95.496
108.340     80.352    93.974
109.916     80.328    92.552
111.515     80.304    91.568
113.137     80.319    90.714
114.783     80.360    89.768
116.452     80.407    88.710
118.146     80.459    87.593
119.865     80.507    86.499
121.608     80.565    85.473
123.377     80.626    84.392
125.171     80.681    83.220
126.992     80.735    81.958
128.839     80.794    80.634
130.713     80.849    79.195
132.615     80.871    77.777
134.543     80.865    76.540
136.500     80.874    75.429
138.486     80.901    74.363
140.500     80.937    73.108
142.544     80.977    71.550
144.617     80.941    70.061
146.721     80.876    69.307
148.855     80.930    68.727
151.020     81.056    67.360
153.217     81.072    65.113
155.445     80.917    63.580
157.706     80.835    62.597
160.000     80.651    61.487
162.327     80.532    61.642
164.688     80.572    61.455
167.084     80.677    61.397
169.514     80.928    59.194
171.980     80.649    55.944
174.481     80.286    55.865
177.019     80.184    56.645
179.594     80.161    56.738
182.206     80.125    56.821
184.856     80.131    57.504
187.545     80.255    57.834
190.273     80.453    57.692
193.041     80.658    56.571
195.849     80.715    55.119
198.697     80.746    53.905
201.587     80.778    52.488
204.520     80.698    50.817
207.494     80.610    50.232
210.512     80.530    49.445
213.574     80.569    48.083
216.681     80.246    46.879
219.833     80.193    47.629
223.030     80.125    46.815
226.274     79.988    46.491
229.565     79.884    46.673
232.905     79.731    46.555
236.292     79.625    47.670
239.729     79.630    48.584
243.216     79.739    49.364
246.754     79.885    49.505
250.343     79.936    48.910
253.984     79.980    49.554
257.678     80.158    48.963
261.426     80.229    48.419
265.229     80.364    47.274
269.087     80.161    45.178
273.001     79.900    45.819
276.972     79.897    46.986
281.000     79.924    47.666
285.088     80.077    47.775
289.234     80.184    47.057
293.441     80.161    47.017
297.709     80.328    46.110
302.040     80.298    44.917
306.433     80.136    42.876
310.890     79.856    43.751
315.412     80.021    43.813
320.000     80.003    42.664
324.655     79.793    39.831
329.377     79.364    41.220
334.168     79.385    41.881
339.028     79.286    42.257
343.959     79.358    42.471
348.962     79.362    41.979
354.038     79.355    41.631
359.188     79.388    41.157
364.412     79.418    39.186
369.713     79.045    37.555
375.090     78.869    38.188
380.546     78.841    38.533
386.081     78.831    38.558
391.697     78.963    38.350
397.394     78.960    37.191
403.175     78.973    35.482
409.039     78.718    34.413
414.989     78.714    34.145
421.025     78.668    33.430
427.149     78.646    32.552
433.362     78.634    31.626
439.665     78.617    30.530
446.060     78.499    28.445
452.548     78.265    26.858
459.131     78.095    25.734
465.809     77.853    24.644
472.584     77.670    23.967
479.458     77.426    23.182
486.432     77.234    23.103
493.507     77.029    22.889
500.686     76.803    22.926
507.968     76.622    23.417
515.357     76.468    24.119
522.853     76.344    25.124
530.458     76.274    26.384
538.174     76.256    27.755
546.002     76.270    29.186
553.943     76.340    30.708
562.001     76.453    32.194
570.175     76.602    33.554
578.469     76.784    34.676
586.883     76.987    35.542
595.419     77.195    36.115
604.080     77.408    36.425
612.866     77.608    36.457
621.780     77.799    36.236
630.824     77.963    35.799
640.000     78.098    35.190
649.309     78.203    34.464
658.753     78.271    33.669
668.335     78.298    32.813
678.056     78.287    31.984
687.919     78.237    31.205
697.925     78.153    30.563
708.077     78.034    30.129
718.376     77.891    29.912
728.825     77.727    30.013
739.426     77.556    30.461
750.181     77.385    31.265
761.093     77.232    32.387
772.163     77.121    33.772
783.394     77.065    35.338
794.789     77.076    37.103
806.349     77.140    38.771
818.078     77.277    40.276
829.977     77.458    41.552
842.050     77.669    42.519
854.298     77.896    43.050
866.724     78.124    43.245
879.330     78.339    43.127
892.120     78.526    42.710
905.097     78.684    42.096
918.262     78.799    41.340
931.618     78.875    40.490
945.169     78.915    39.658
958.917     78.913    38.865
972.864     78.883    38.199
987.015     78.832    37.698
1001.37     78.756    37.376
1015.94     78.678    37.255
1030.71     78.611    37.319
1045.71     78.561    37.532
1060.92     78.539    37.857
1076.35     78.548    38.187
1092.00     78.589    38.457
1107.89     78.658    38.534
1124.00     78.751    38.369
1140.35     78.850    37.897
1156.94     78.947    37.052
1173.77     79.019    35.864
1190.84     79.052    34.320
1208.16     79.033    32.461
1225.73     78.945    30.349
1243.56     78.772    28.065
1261.65     78.504    25.741
1280.00     78.132    23.508
1298.62     77.653    21.569
1317.51     77.060    20.064
1336.67     76.361    19.307
1356.11     75.588    19.549
1375.84     74.774    21.017
1395.85     73.997    23.879
1416.15     73.344    28.034
1436.75     72.883    33.012
1457.65     72.638    38.255
1478.85     72.576    43.142
1500.36     72.641    47.374
1522.19     72.767    50.943
1544.33     72.922    53.981
1566.79     73.091    56.628
1589.58     73.275    58.908
1612.70     73.471    60.807
1636.16     73.664    62.315
1659.95     73.837    63.414
1684.10     73.970    64.239
1708.60     74.045    64.943
1733.45     74.079    65.725
1758.66     74.090    66.727
1784.24     74.126    67.895
1810.19     74.203    69.079
1836.52     74.324    69.918
1863.24     74.448    70.190
1890.34     74.508    69.846
1917.83     74.444    69.141
1945.73     74.218    68.579
1974.03     73.834    68.833
2002.74     73.392    70.615
2031.87     73.047    74.173
2061.43     73.003    78.700
2091.41     73.305    82.614
2121.83     73.801    84.418
2152.69     74.247    83.849
2184.01     74.454    81.532
2215.77     74.308    78.492
2248.00     73.766    76.034
2280.70     72.882    75.636
2313.87     71.849    78.832
2347.53     71.092    86.101
2381.68     71.014    95.105
2416.32     71.541   102.164
2451.46     72.249   105.988
2487.12     72.830   107.538
2523.30     73.221   108.252
2560.00     73.488   108.967
2597.24     73.718   109.794
2635.01     73.948   110.477
2673.34     74.148   110.859
2712.23     74.284   111.101
2751.68     74.364   111.502
2791.70     74.441   112.224
2832.31     74.553   113.027
2873.50     74.678   113.574
2915.30     74.772   113.923
2957.70     74.813   114.440
3000.72     74.861   115.379
3044.37     74.990   116.576
3088.65     75.206   117.434
3133.58     75.436   117.658
3179.16     75.623   117.518
3225.40     75.784   117.446
3272.31     75.984   117.367
3319.91     76.227   116.820
3368.20     76.445   115.561
3417.19     76.572   113.975
3466.89     76.627   112.500
3517.32     76.675   111.222
3568.48     76.732   109.844
3620.39     76.763   108.240
3673.05     76.750   106.644
3726.47     76.724   105.222
3780.67     76.718   103.868
3835.67     76.727   102.349
3891.46     76.731   100.624
3948.06     76.709    98.742
4005.49     76.656    96.942
4063.75     76.623    95.409
4122.86     76.689    93.721
4182.82     76.794    91.025
4243.66     76.770    87.413
4305.39     76.570    84.009
4368.01     76.316    81.422
4431.55     76.091    79.182
4496.01     75.864    77.103
4561.40     75.652    75.348
4627.75     75.473    73.582
4695.06     75.259    71.908
4763.35     75.065    70.906
4832.64     74.993    69.978
4902.93     74.938    68.615
4974.24     74.863    67.460
5046.60     74.856    66.476
5120.00     74.878    65.364
5194.47     74.965    64.469
5270.03     75.164    63.091
5346.68     75.363    60.891
5424.45     75.538    58.189
5503.35     75.624    54.711
5583.40     75.523    51.396
5664.61     75.376    48.942
5747.01     75.219    46.861
5830.60     75.080    45.492
5915.41     75.032    44.087
6001.45     74.943    42.592
6088.74     74.902    41.486
6177.30     74.871    39.967
6267.15     74.786    38.752
6358.31     74.722    37.711
6450.80     74.648    36.967
6544.62     74.639    36.366
6639.82     74.632    35.967
6736.40     74.757    35.599
6834.38     74.880    34.449
6933.79     75.005    33.289
7034.64     75.125    31.477
7136.96     75.184    29.328
7240.77     75.089    27.020
7346.09     74.959    25.714
7452.94     74.828    24.279
7561.35     74.649    23.709
7671.33     74.532    23.403
7782.91     74.461    23.524
7896.12     74.405    23.828
8010.97     74.518    24.854
8127.49     74.782    24.882
8245.71     75.040    23.705
8365.65     75.147    21.749
8487.33     75.126    19.462
8610.78     75.013    17.543
8736.03     74.816    15.115
8863.09     74.495    13.387
8992.01     74.158    12.266
9122.80     73.897    11.440
9255.50     73.730    10.788
9390.12     73.623     8.975
9526.70     73.459     6.827
9665.27     73.209     4.339
9805.86     72.853     2.362
9948.49     72.556     1.230
10093.2     72.284     0.772
10240.0     72.205     0.667
10388.9     72.157     0.040
10540.1     72.121    -0.563
10693.4     72.080    -1.530
10848.9     72.059    -2.434
11006.7     72.002    -3.733
11166.8     71.907    -4.708
11329.2     71.797    -5.965
11494.0     71.665    -6.491
11661.2     71.577    -6.708
11830.8     71.627    -6.587
12002.9     71.836    -7.333
12177.5     72.089    -9.766
12354.6     72.138   -13.437
12534.3     71.996   -17.710
12716.6     71.367   -21.061
12901.6     70.922   -20.762
13089.2     70.812   -21.013
13279.6     70.753   -22.489
13472.8     70.699   -24.937
13668.8     70.491   -28.389
13867.6     70.022   -32.737
14069.3     69.182   -35.645
14273.9     68.282   -36.153
14481.5     67.448   -35.552
14692.2     66.710   -33.464
14905.9     66.080   -30.396
15122.7     65.692   -26.835
15342.7     65.440   -23.620
15565.8     65.252   -18.855
15792.2     65.680   -14.940
16021.9     66.328   -14.597
16255.0     66.738   -17.399
16491.4     66.795   -21.804
16731.3     66.408   -25.743
16974.7     65.929   -28.568
17221.6     65.233   -30.816
17472.1     64.456   -30.544
17726.2     64.043   -30.483
17984.0     63.379   -31.329
18245.6     62.586   -30.277
18511.0     62.019   -28.553
18780.2     61.426   -27.971
19053.4     60.435   -26.862
19330.5     59.374   -20.677
19611.7     59.103   -11.342
19897.0     59.829    -4.611
20186.4     60.609    -5.629
20480.0     60.513    -8.915
20777.9     60.036    -9.514
21080.1     59.766    -9.375
21386.7     59.205   -10.595
21697.8     58.333   -10.805
22013.4     56.950    -7.578
22333.6     55.908     3.654
22658.4     56.351    16.988
22988.0     57.615    23.148
23322.4     58.690    24.635
23661.6     59.628    24.025
24005.8     60.432    20.787
24355.0     60.804    15.268
24709.2     60.666    10.330
25068.6     60.432     7.709
25433.2     60.391     5.510
25803.2     60.421     2.050
26178.5     60.514    -2.547
26559.3     60.516    -9.743
26945.6     60.022   -19.214
27337.5     58.789   -27.763
27735.2     57.066   -32.949
28138.6     55.016   -34.207
28547.9     52.900   -28.578
28963.1     51.714   -16.918
29384.4     51.775    -6.659
29811.8     52.319    -3.653
30245.4     52.002    -6.051
30685.3     50.844    -3.748
31131.7     50.308     3.750
31584.5     50.494     9.575
32043.9     50.893     9.550
32510.0     50.753     6.040
32982.8     50.352     2.103
33462.6     49.201    -4.404
33949.3     46.769    -4.753
34443.1     45.332     5.187
34944.1     44.813    13.526
35452.4     45.543    17.857
35968.0     45.535    13.354
36491.2     44.751     7.803
37022.0     43.544     4.552
37560.5     42.192     1.615
38106.8     40.536    -1.894
38661.1     38.630    -3.838
39223.4     36.429    -6.430
39793.9     34.368    -6.161
