Freq[Hz]     dBSPL  Phase[Deg]
5.00000     -2.321    66.186
5.07273     -1.865    68.196
5.14651     -1.514    69.738
5.22137     -1.456    69.972
5.29732     -1.398    70.205
5.37437     -1.340    70.439
5.45254     -1.283    70.672
5.53185     -1.542    71.287
5.61231     -2.138    72.306
5.69394     -2.734    73.326
5.77676     -3.329    74.345
5.86079     -3.933    75.524
5.94604     -5.029    86.156
6.03252     -6.124    96.788
6.12027     -7.219   107.419
6.20929     -8.314   118.051
6.29961     -7.374   129.564
6.39124     -5.983   141.272
6.48420     -4.592   152.980
6.57851     -3.200   164.688
6.67420     -2.136   166.367
6.77128     -1.124   166.418
6.86977     -0.113   166.469
6.96969      0.787   166.203
7.07107      0.837   163.527
7.17392      0.886   160.852
7.27827      0.936   158.176
7.38413      0.181   155.161
7.49154     -1.197   151.884
7.60050     -2.576   148.606
7.71105     -4.278   154.187
7.82321     -7.408  -161.328
7.93701    -10.538  -116.844
8.05245    -13.668   -72.359
8.16958     -9.196   -71.803
8.28841     -4.440   -72.888
8.40896      0.316   -73.973
8.53128      1.838   -79.733
8.65537      2.941   -86.095
8.78126      4.045   -92.458
8.90899      3.520  -103.221
9.03857      2.889  -114.272
9.17004      2.276  -128.220
9.30342      1.808  -165.227
9.43874      1.341   157.765
9.57603      2.587   127.200
9.71532      6.452   106.477
9.85663     10.318    85.755
10.0000     12.978    74.769
10.1455     15.302    66.495
10.2930     17.389    58.895
10.4427     18.813    53.175
10.5946     20.238    47.455
10.7487     21.231    43.065
10.9051     22.137    38.941
11.0637     22.880    35.645
11.2246     23.448    33.225
11.3879     23.984    31.205
11.5535     24.396    30.645
11.7216     24.809    30.109
11.8921     25.243    30.985
12.0650     25.677    31.861
12.2405     26.191    33.081
12.4186     26.715    34.345
12.5992     27.245    35.352
12.7825     27.776    36.301
12.9684     28.231    37.191
13.1570     28.668    38.067
13.3484     29.026    39.534
13.5426     29.371    41.097
13.7395     29.757    43.721
13.9394     30.166    46.432
14.1421     30.744    49.492
14.3478     31.376    52.255
14.5565     32.121    54.378
14.7683     32.859    55.681
14.9831     33.591    56.352
15.2010     34.183    56.287
15.4221     34.715    56.138
15.6464     35.084    56.170
15.8740     35.400    56.872
16.1049     35.674    58.107
16.3392     36.061    60.617
16.5768     36.561    63.193
16.8179     37.221    65.799
17.0626     38.038    67.061
17.3107     38.855    67.410
17.5625     39.644    66.633
17.8180     40.226    64.820
18.0771     40.656    62.995
18.3401     40.928    61.376
18.6068     41.018    60.985
18.8775     41.114    62.228
19.1521     41.329    64.665
19.4306     41.752    68.001
19.7133     42.530    70.780
20.0000     43.440    71.839
20.2909     44.333    71.360
20.5860     45.106    69.607
20.8855     45.679    67.124
21.1893     45.982    64.867
21.4975     46.119    63.725
21.8102     46.210    64.069
22.1274     46.388    65.827
22.4492     46.766    68.382
22.7758     47.372    70.718
23.1071     48.115    71.955
23.4432     48.847    71.929
23.7841     49.455    71.126
24.1301     49.929    70.336
24.4811     50.321    70.066
24.8372     50.714    70.447
25.1984     51.179    71.197
25.5649     51.732    71.810
25.9368     52.326    71.910
26.3141     52.897    71.466
26.6968     53.399    70.751
27.0851     53.831    70.135
27.4791     54.230    69.881
27.8788     54.649    69.982
28.2843     55.114    70.189
28.6957     55.617    70.258
29.1131     56.128    70.100
29.5365     56.623    69.799
29.9661     57.095    69.517
30.4020     57.560    69.366
30.8442     58.041    69.343
31.2929     58.542    69.323
31.7480     59.056    69.228
32.2098     59.566    69.067
32.6783     60.066    68.927
33.1536     60.566    68.880
33.6359     61.076    68.913
34.1251     61.604    68.946
34.6215     62.139    68.906
35.1250     62.670    68.798
35.6359     63.190    68.673
36.1543     63.706    68.565
36.6802     64.219    68.455
37.2137     64.729    68.305
37.7550     65.233    68.109
38.3041     65.731    67.852
38.8613     66.223    67.516
39.4265     66.708    67.055
40.0000     67.181    66.481
40.5818     67.647    65.795
41.1721     68.111    64.933
41.7710     68.562    63.846
42.3785     68.982    62.578
42.9949     69.371    61.362
43.6203     69.761    60.317
44.2548     70.186    59.340
44.8985     70.640    58.210
45.5515     71.090    56.939
46.2141     71.530    55.693
46.8863     71.968    54.539
47.5683     72.416    53.358
48.2602     72.848    52.081
48.9621     73.248    50.786
49.6743     73.623    49.523
50.3968     73.976    48.239
51.1299     74.304    46.884
51.8736     74.603    45.474
52.6281     74.878    44.024
53.3936     75.133    42.535
54.1702     75.371    41.026
54.9581     75.596    39.509
55.7575     75.806    37.998
56.5685     75.996    36.524
57.3914     76.162    35.100
58.2261     76.300    33.743
59.0730     76.397    32.552
59.9323     76.467    31.574
60.8040     76.527    30.764
61.6884     76.579    30.058
62.5857     76.629    29.364
63.4960     76.662    28.680
64.4196     76.681    28.119
65.3566     76.703    27.687
66.3073     76.717    27.332
67.2717     76.718    27.137
68.2502     76.708    27.119
69.2429     76.688    27.292
70.2501     76.667    27.669
71.2719     76.654    28.151
72.3086     76.644    28.655
73.3603     76.626    29.174
74.4274     76.598    29.772
75.5099     76.560    30.417
76.6083     76.486    31.238
77.7226     76.412    32.511
78.8531     76.374    33.925
80.0000     76.340    35.449
81.1636     76.343    37.075
82.3442     76.356    38.553
83.5419     76.364    40.053
84.7570     76.369    41.562
85.9899     76.364    43.177
87.2406     76.349    44.876
88.5096     76.330    46.795
89.7970     76.336    48.778
91.1031     76.341    50.584
92.4282     76.309    52.341
93.7726     76.235    54.219
95.1366     76.122    56.500
96.5204     76.037    59.253
97.9243     75.985    62.181
99.3486     75.972    65.229
100.794     75.988    68.266
102.260     76.032    71.255
103.747     76.082    74.174
105.256     76.128    77.032
106.787     76.161    79.883
108.340     76.179    82.695
109.916     76.152    85.648
111.515     76.130    89.096
113.137     76.149    92.747
114.783     76.193    96.383
116.452     76.241    99.967
118.146     76.293   103.539
119.865     76.344   107.175
121.608     76.407   110.941
123.377     76.476   114.730
125.171     76.539   118.503
126.992     76.599   122.248
128.839     76.665   125.979
130.713     76.729   129.650
132.615     76.765   133.408
134.543     76.775   137.529
136.500     76.802   141.910
138.486     76.846   145.841
140.500     76.899   150.079
142.544     76.958   154.499
144.617     76.941   158.483
146.721     76.895   163.203
148.855     76.970   168.590
151.020     77.114   173.173
153.217     77.150   176.851
155.445     77.017  -178.782
157.706     76.960  -173.874
160.000     76.809  -168.593
162.327     76.722  -162.019
164.688     76.789  -156.271
167.084     76.919  -149.920
169.514     77.197  -145.262
171.980     76.949  -141.668
174.481     76.614  -135.390
177.019     76.542  -128.259
179.594     76.551  -121.342
182.206     76.551  -113.967
184.856     76.598  -105.963
187.545     76.754   -98.756
190.273     76.972   -91.566
193.041     77.197   -85.469
195.849     77.288   -79.746
198.697     77.361   -73.230
201.587     77.421   -66.895
204.520     77.365   -60.885
207.494     77.306   -53.827
210.512     77.256   -46.498
213.574     77.326   -39.758
216.681     77.032   -33.337
219.833     77.005   -24.480
223.030     76.957   -16.741
226.274     76.837    -8.569
229.565     76.751     0.074
232.905     76.615     8.416
236.292     76.521    17.969
239.729     76.534    27.780
243.216     76.635    37.414
246.754     76.772    46.267
250.343     76.828    54.827
253.984     76.866    64.655
257.678     77.037    73.176
261.426     77.100    82.255
265.229     77.212    90.697
269.087     76.987    98.192
273.001     76.683   108.486
276.972     76.622   119.214
281.000     76.581   129.941
285.088     76.636   140.543
289.234     76.626   150.290
293.441     76.463   160.662
297.709     76.474   170.092
302.040     76.289   179.224
306.433     75.941  -171.834
310.890     75.423  -159.570
315.412     75.331  -148.018
320.000     75.011  -137.685
324.655     74.489  -128.897
329.377     73.691  -115.737
334.168     73.285  -102.353
339.028     72.734   -88.943
343.959     72.283   -75.398
348.962     71.745   -62.471
354.038     71.171   -48.709
359.188     70.540   -34.112
364.412     69.861   -19.806
369.713     68.737    -4.322
375.090     67.824    14.388
380.546     67.068    34.708
386.081     66.453    56.049
391.697     66.126    79.326
397.394     65.943   103.014
403.175     66.112   125.614
409.039     66.338   148.728
414.989     67.064   172.263
421.025     67.890  -166.306
427.149     68.779  -146.432
433.362     69.684  -127.995
439.665     70.620  -109.669
446.060     71.430   -93.263
452.548     72.054   -76.929
459.131     72.715   -60.397
465.809     73.279   -43.931
472.584     73.856   -27.400
479.458     74.295   -11.471
486.432     74.763     5.100
493.507     75.189    21.595
500.686     75.551    38.471
507.968     75.871    55.395
515.357     76.175    72.186
522.853     76.430    89.456
530.458     76.666   107.114
538.174     76.870   124.725
546.002     77.024   142.292
553.943     77.151   160.309
562.001     77.243   178.750
570.175     77.292  -162.438
578.469     77.301  -143.275
586.883     77.270  -124.213
595.419     77.198  -105.247
604.080     77.084   -85.998
612.866     76.929   -66.458
621.780     76.728   -46.666
630.824     76.488   -26.592
640.000     76.201    -6.647
649.309     75.867    13.072
658.753     75.498    32.951
668.335     75.085    53.516
678.056     74.610    73.921
687.919     74.070    94.568
697.925     73.432   115.281
708.077     72.695   135.415
718.376     71.866   154.934
728.825     71.020   173.604
739.426     70.204  -168.538
750.181     69.478  -151.561
761.093     68.948  -135.100
772.163     68.611  -118.555
783.394     68.433  -101.551
794.789     68.392   -83.522
806.349     68.497   -64.635
818.078     68.665   -44.358
829.977     68.873   -22.694
842.050     69.056     0.447
854.298     69.220    24.953
866.724     69.301    50.480
879.330     69.293    77.749
892.120     69.183   106.269
905.097     68.950   136.180
918.262     68.586   167.402
931.618     68.093  -160.014
945.169     67.488  -125.781
958.917     66.778   -89.656
972.864     65.989   -51.445
987.015     65.196   -10.847
1001.37     64.525    32.624
1015.94     64.097    78.199
1030.71     64.012   124.329
1045.71     64.226   170.959
1060.92     64.625  -142.765
1076.35     65.088   -98.177
1092.00     65.512   -54.386
1107.89     65.818   -10.625
1124.00     65.997    33.105
1140.35     66.002    77.149
1156.94     65.873   122.313
1173.77     65.607   168.480
1190.84     65.265  -144.188
1208.16     64.886   -95.335
1225.73     64.544   -44.768
1243.56     64.316     7.475
1261.65     64.206    60.111
1280.00     64.195   112.516
1298.62     64.226   164.471
1317.51     64.174  -143.752
1336.67     63.959   -92.035
1356.11     63.514   -40.701
1375.84     62.740    11.384
1395.85     61.536    64.638
1416.15     59.797   119.513
1436.75     57.343   178.272
1457.65     54.137  -113.958
1478.85     51.470   -27.494
1500.36     52.341    65.319
1522.19     55.075   142.143
1544.33     57.264  -151.600
1566.79     58.651   -88.437
1589.58     59.352   -25.232
1612.70     59.602    38.896
1636.16     59.544   105.855
1659.95     59.413   175.843
1684.10     59.461  -111.426
1708.60     59.813   -37.185
1733.45     60.397    36.195
1758.66     61.039   109.399
1784.24     61.566  -178.120
1810.19     61.927  -105.871
1836.52     62.093   -32.336
1863.24     62.100    42.643
1890.34     62.017   119.099
1917.83     61.880  -163.040
1945.73     61.706   -83.852
1974.03     61.447    -2.932
2002.74     61.064    79.868
2031.87     60.628   165.139
2061.43     60.279  -106.268
2091.41     60.339   -14.699
2121.83     60.913    77.560
2152.69     61.766   167.201
2184.01     62.548  -105.104
2215.77     63.009   -18.234
2248.00     63.026    68.642
2280.70     62.539   156.870
2313.87     61.622  -111.294
2347.53     60.452   -14.361
2381.68     59.437    87.971
2416.32     58.998  -165.883
2451.46     59.139   -59.571
2487.12     59.417    45.544
2523.30     59.536   150.268
2560.00     59.419  -103.717
2597.24     59.196     3.623
2635.01     58.937   112.799
2673.34     58.635  -136.923
2712.23     58.192   -25.553
2751.68     57.456    87.888
2791.70     56.374  -156.003
2832.31     55.021   -35.548
2873.50     53.727    91.117
2915.30     53.040  -136.874
2957.70     53.283    -3.867
3000.72     53.886   125.589
3044.37     54.233  -108.010
3088.65     53.978    18.676
3133.58     53.045   148.083
3179.16     51.594   -76.773
3225.40     50.111    67.125
3272.31     49.625  -140.816
3319.91     50.668    11.150
3368.20     52.261   156.138
3417.19     53.327   -63.716
3466.89     53.495    77.131
3517.32     53.085  -136.871
3568.48     52.685    14.289
3620.39     52.478   168.455
3673.05     52.146   -33.874
3726.47     52.022   129.310
3780.67     52.767   -65.986
3835.67     53.565    93.838
3891.46     53.204  -105.845
3948.06     52.073    64.361
4005.49     52.154  -116.066
4063.75     53.189    58.621
4122.86     53.167  -129.650
4182.82     52.632    50.161
4243.66     52.945  -126.234
4305.39     52.835    52.412
4368.01     51.458  -122.659
4431.55     50.938    73.628
4496.01     51.364   -98.009
4561.40     49.750    86.651
4627.75     46.903   -70.814
4695.06     46.384   134.617
4763.35     42.928   -34.222
4832.64     36.642  -138.752
4902.93     42.724    92.719
4974.24     40.998   -57.958
5046.60     43.662  -166.381
5120.00     48.154    36.332
5194.47     46.694  -118.137
5270.03     46.850   124.695
5346.68     50.319   -15.483
5424.45     49.963  -159.247
5503.35     49.984    78.791
5583.40     51.442   -52.680
5664.61     50.116   179.896
5747.01     50.393    71.471
5830.60     51.360   -51.377
5915.41     49.744  -164.601
6001.45     49.936    92.019
6088.74     48.577   -21.175
6177.30     46.051  -108.914
6267.15     46.116   157.495
6358.31     42.227    69.973
6450.80     40.992     0.188
6544.62     35.098   -55.616
6639.82     39.034   -86.456
6736.40     40.234  -136.628
6834.38     45.506   160.610
6933.79     45.780    93.478
7034.64     48.452    38.913
7136.96     48.824   -29.714
7240.77     48.975   -80.441
7346.09     48.429  -139.508
7452.94     46.903  -178.874
7561.35     46.418   133.833
7671.33     44.232   100.182
7782.91     43.084    59.493
7896.12     40.291    31.202
8010.97     38.523   -13.482
8127.49     33.357   -40.929
8245.71     33.443  -106.599
8365.65     31.323  -179.194
8487.33     36.514   156.058
8610.78     37.359   130.487
8736.03     40.387   148.347
8863.09     41.767   155.253
8992.01     43.826   171.862
9122.80     42.780  -162.128
9255.50     42.581  -129.361
9390.12     41.634   -79.019
9526.70     40.045   -29.491
9665.27     40.265    28.306
9805.86     38.528    82.282
9948.49     32.987   131.175
10093.2     23.558   168.645
10240.0     24.692    84.559
10388.9     30.426  -179.919
10540.1     31.714  -110.726
10693.4     31.463   -31.668
10848.9     27.497    65.966
11006.7     28.100   138.920
11166.8     29.422  -118.163
11329.2     30.185     9.761
11494.0     32.348   140.777
11661.2     31.141   -69.297
11830.8     29.483    94.777
12002.9     24.768   -56.904
12177.5     32.501   148.882
12354.6     35.300   -40.412
12534.3     35.321   137.013
12716.6     33.739   -33.055
12901.6     32.476   173.687
13089.2     32.872    20.097
13279.6     30.273  -126.335
13472.8     32.111    94.139
13668.8     32.768   -39.718
13867.6     36.389  -175.446
14069.3     35.896    53.806
14273.9     36.074   -47.559
14481.5     36.384  -148.360
14692.2     35.673   132.428
14905.9     34.903    56.200
15122.7     35.938    -7.104
15342.7     35.926   -82.110
15565.8     32.585  -131.222
15792.2     31.203  -132.283
16021.9     35.116  -133.795
16255.0     37.520  -148.809
16491.4     35.961  -146.207
16731.3     34.145  -102.211
16974.7     36.574   -26.924
17221.6     45.633    27.814
17472.1     52.430    32.068
17726.2     47.123    49.015
17984.0     42.077   134.858
18245.6     40.092  -118.412
18511.0     39.898    -3.852
18780.2     39.122   119.775
19053.4     37.607  -103.427
19330.5     35.631    48.749
19611.7     33.419  -144.671
19897.0     29.736    29.035
20186.4     22.840  -121.233
20480.0     25.531   141.369
20777.9     28.435    -7.466
21080.1     28.868  -144.749
21386.7     27.897    96.133
21697.8     25.531   -16.079
22013.4     19.653   -16.075
22333.6     21.883  -112.888
22658.4     25.338   150.091
22988.0     19.729    64.178
23322.4     25.171   122.903
23661.6     25.977    99.228
24005.8     25.993    87.351
24355.0     19.686  -151.758
24709.2     16.904   -75.670
25068.6     16.709    30.759
25433.2     19.379   -28.789
25803.2     19.882   164.830
26178.5     19.161    84.459
26559.3     24.626  -164.885
26945.6     19.398    86.204
27337.5     19.019   166.872
27735.2     22.393    79.800
28138.6     25.055   -10.824
28547.9     23.888    91.708
28963.1     22.062    75.252
29384.4     24.781  -139.713
29811.8     27.055    91.030
30245.4     21.987    47.700
30685.3     18.201   -66.698
31131.7     19.391  -100.818
31584.5     19.409    15.522
32043.9     24.553    32.417
32510.0     23.810  -136.239
32982.8     26.177   119.699
33462.6     25.921   113.999
33949.3     24.737  -170.473
34443.1     27.401   -59.558
34944.1     31.003    50.872
35452.4     33.071   147.489
35968.0     26.397    40.676
36491.2     22.373    37.015
37022.0     21.887   -75.393
37560.5     20.926   144.784
38106.8     21.582    31.204
38661.1     19.941  -142.605
39223.4     20.110  -170.775
39793.9     23.760   126.945
