Freq[Hz]     dBSPL  Phase[Deg]
5.00000     -2.621    65.312
5.07273     -2.163    67.297
5.14651     -1.809    68.814
5.22137     -1.748    69.023
5.29732     -1.686    69.232
5.37437     -1.625    69.441
5.45254     -1.564    69.650
5.53185     -1.819    70.242
5.61231     -2.410    71.240
5.69394     -3.001    72.237
5.77676     -3.592    73.235
5.86079     -4.191    74.393
5.94604     -5.281    85.008
6.03252     -6.370    95.624
6.12027     -7.460   106.239
6.20929     -8.549   116.854
6.29961     -7.603   128.356
6.39124     -6.205   140.055
6.48420     -4.807   151.753
6.57851     -3.409   163.452
6.67420     -2.338   165.129
6.77128     -1.319   165.179
6.86977     -0.300   165.230
6.96969      0.607   164.964
7.07107      0.664   162.298
7.17392      0.722   159.633
7.27827      0.780   156.967
7.38413      0.032   153.968
7.49154     -1.338   150.712
7.60050     -2.709   147.456
7.71105     -4.404   153.060
7.82321     -7.527  -162.422
7.93701    -10.649  -117.904
8.05245    -13.772   -73.386
8.16958     -9.292   -72.785
8.28841     -4.529   -73.825
8.40896      0.234   -74.865
8.53128      1.760   -80.569
8.65537      2.870   -86.875
8.78126      3.979   -93.181
8.90899      3.458  -103.878
9.03857      2.831  -114.862
9.17004      2.221  -128.743
9.30342      1.755  -165.675
9.43874      1.290   157.393
9.57603      2.537   126.906
9.71532      6.402   106.264
9.85663     10.267    85.623
10.0000     12.924    74.720
10.1455     15.246    66.532
10.2930     17.329    59.016
10.4427     18.748    53.380
10.5946     20.167    47.744
10.7487     21.151    43.435
10.9051     22.049    39.391
11.0637     22.781    36.171
11.2246     23.338    33.822
11.3879     23.862    31.871
11.5535     24.260    31.371
11.7216     24.658    30.894
11.8921     25.076    31.814
12.0650     25.493    32.734
12.2405     25.988    33.979
12.4186     26.492    35.266
12.5992     27.002    36.276
12.7825     27.513    37.225
12.9684     27.947    38.093
13.1570     28.363    38.942
13.3484     28.700    40.359
13.5426     29.024    41.867
13.7395     29.389    44.409
13.9394     29.778    47.034
14.1421     30.338    49.985
14.3478     30.953    52.630
14.5565     31.682    54.617
14.7683     32.406    55.774
14.9831     33.126    56.288
15.2010     33.710    56.053
15.4221     34.234    55.730
15.6464     34.600    55.579
15.8740     34.915    56.095
16.1049     35.190    57.144
16.3392     35.583    59.468
16.5768     36.092    61.864
16.8179     36.762    64.294
17.0626     37.594    65.394
17.3107     38.428    65.590
17.5625     39.235    64.672
17.8180     39.840    62.743
18.0771     40.293    60.815
18.3401     40.590    59.111
18.6068     40.705    58.661
18.8775     40.826    59.868
19.1521     41.067    62.287
19.4306     41.514    65.626
19.7133     42.317    68.433
20.0000     43.250    69.539
20.2909     44.162    69.124
20.5860     44.952    67.449
20.8855     45.540    65.057
21.1893     45.855    62.901
21.4975     46.001    61.864
21.8102     46.096    62.313
22.1274     46.275    64.173
22.4492     46.651    66.822
22.7758     47.253    69.240
23.1071     47.988    70.543
23.4432     48.711    70.563
23.7841     49.308    69.782
24.1301     49.770    68.990
24.4811     50.151    68.693
24.8372     50.535    69.024
25.1984     50.993    69.702
25.5649     51.541    70.226
25.9368     52.133    70.225
26.3141     52.707    69.673
26.6968     53.216    68.850
27.0851     53.659    68.132
27.4791     54.072    67.792
27.8788     54.509    67.826
28.2843     54.995    67.992
28.6957     55.520    68.050
29.1131     56.054    67.913
29.5365     56.571    67.667
29.9661     57.062    67.471
30.4020     57.544    67.435
30.8442     58.036    67.555
31.2929     58.544    67.695
31.7480     59.057    67.769
32.2098     59.560    67.776
32.6783     60.047    67.790
33.1536     60.525    67.872
33.6359     61.008    68.000
34.1251     61.504    68.079
34.6215     62.003    68.025
35.1250     62.499    67.845
35.6359     62.984    67.575
36.1543     63.469    67.258
36.6802     63.958    66.879
37.2137     64.454    66.410
37.7550     64.955    65.859
38.3041     65.462    65.230
38.8613     65.976    64.527
39.4265     66.498    63.730
40.0000     67.020    62.872
40.5818     67.544    61.975
41.1721     68.074    60.999
41.7710     68.594    59.897
42.3785     69.079    58.728
42.9949     69.528    57.708
43.6203     69.969    56.942
44.2548     70.428    56.306
44.8985     70.901    55.541
45.5515     71.354    54.627
46.2141     71.781    53.698
46.8863     72.198    52.796
47.5683     72.616    51.780
48.2602     73.016    50.580
48.9621     73.388    49.282
49.6743     73.741    47.956
50.3968     74.082    46.571
51.1299     74.406    45.108
51.8736     74.708    43.605
52.6281     74.991    42.092
53.3936     75.256    40.577
54.1702     75.503    39.070
54.9581     75.732    37.571
55.7575     75.942    36.071
56.5685     76.130    34.587
57.3914     76.294    33.122
58.2261     76.432    31.695
59.0730     76.535    30.418
59.9323     76.618    29.359
60.8040     76.694    28.492
61.6884     76.767    27.767
62.5857     76.835    27.094
63.4960     76.884    26.465
64.4196     76.915    25.974
65.3566     76.942    25.609
66.3073     76.958    25.305
67.2717     76.959    25.137
68.2502     76.949    25.125
69.2429     76.930    25.287
70.2501     76.914    25.643
71.2719     76.905    26.098
72.3086     76.902    26.574
73.3603     76.894    27.066
74.4274     76.877    27.646
75.5099     76.854    28.290
76.6083     76.792    29.132
77.7226     76.729    30.450
78.8531     76.697    31.914
80.0000     76.666    33.474
81.1636     76.669    35.104
82.3442     76.685    36.551
83.5419     76.701    38.001
84.7570     76.719    39.470
85.9899     76.731    41.085
87.2406     76.732    42.822
88.5096     76.723    44.800
89.7970     76.734    46.825
91.1031     76.742    48.634
92.4282     76.718    50.362
93.7726     76.660    52.211
95.1366     76.566    54.503
96.5204     76.499    57.315
97.9243     76.461    60.334
99.3486     76.455    63.466
100.794     76.476    66.562
102.260     76.527    69.593
103.747     76.584    72.563
105.256     76.639    75.495
106.787     76.674    78.430
108.340     76.690    81.300
109.916     76.661    84.267
111.515     76.640    87.694
113.137     76.667    91.326
114.783     76.725    94.978
116.452     76.784    98.612
118.146     76.842   102.244
119.865     76.898   105.932
121.608     76.965   109.733
123.377     77.041   113.549
125.171     77.110   117.351
126.992     77.179   121.135
128.839     77.254   124.918
130.713     77.326   128.650
132.615     77.368   132.473
134.543     77.383   136.658
136.500     77.416   141.113
138.486     77.463   145.124
140.500     77.515   149.447
142.544     77.570   153.923
144.617     77.552   157.916
146.721     77.512   162.646
148.855     77.596   168.087
151.020     77.745   172.755
153.217     77.782   176.504
155.445     77.652  -179.070
157.706     77.598  -174.089
160.000     77.448  -168.715
162.327     77.358  -162.066
164.688     77.424  -156.265
167.084     77.556  -149.852
169.514     77.835  -145.105
171.980     77.585  -141.406
174.481     77.244  -135.039
177.019     77.164  -127.869
179.594     77.174  -120.927
182.206     77.180  -113.425
184.856     77.213  -105.271
187.545     77.351   -98.067
190.273     77.578   -90.914
193.041     77.816   -84.677
195.849     77.896   -78.771
198.697     77.954   -72.195
201.587     78.013   -65.783
204.520     77.947   -59.653
207.494     77.880   -52.545
210.512     77.833   -45.108
213.574     77.894   -38.178
216.681     77.582   -31.632
219.833     77.539   -22.690
223.030     77.482   -14.873
226.274     77.358    -6.549
229.565     77.250     2.308
232.905     77.084    10.708
236.292     76.985    20.300
239.729     76.990    30.292
243.216     77.075    40.093
246.754     77.196    49.136
250.343     77.227    57.901
253.984     77.239    67.927
257.678     77.374    76.626
261.426     77.411    85.775
265.229     77.511    94.451
269.087     77.249   102.187
273.001     76.920   112.646
276.972     76.830   123.664
281.000     76.748   134.619
285.088     76.769   145.493
289.234     76.721   155.482
293.441     76.535   166.207
297.709     76.496   176.091
302.040     76.257  -174.471
306.433     75.874  -165.135
310.890     75.307  -152.351
315.412     75.167  -140.249
320.000     74.793  -129.311
324.655     74.227  -119.839
329.377     73.367  -105.890
334.168     72.919   -91.671
339.028     72.323   -77.178
343.959     71.864   -62.427
348.962     71.293   -47.877
354.038     70.709   -32.726
359.188     70.156   -16.284
364.412     69.570     0.181
369.713     68.658    17.623
375.090     68.057    38.357
380.546     67.768    60.120
386.081     67.672    82.184
391.697     67.954   104.360
397.394     68.322   126.066
403.175     68.839   145.490
409.039     69.217   165.232
414.989     69.933  -174.642
421.025     70.613  -155.919
427.149     71.311  -138.290
433.362     72.004  -121.387
439.665     72.691  -104.314
446.060     73.248   -88.802
452.548     73.650   -73.381
459.131     74.124   -57.477
465.809     74.511   -41.275
472.584     74.881   -24.871
479.458     75.122    -9.271
486.432     75.424     7.022
493.507     75.674    23.563
500.686     75.853    40.145
507.968     75.982    57.072
515.357     76.136    73.699
522.853     76.191    90.757
530.458     76.241   108.425
538.174     76.244   125.645
546.002     76.223   142.985
553.943     76.139   160.803
562.001     76.024   178.817
570.175     75.842  -162.794
578.469     75.613  -144.245
586.883     75.341  -125.919
595.419     75.004  -107.726
604.080     74.620   -89.641
612.866     74.184   -71.424
621.780     73.684   -53.348
630.824     73.145   -35.463
640.000     72.580   -18.176
649.309     72.009    -1.696
658.753     71.460    14.330
668.335     70.960    30.251
678.056     70.555    45.645
687.919     70.254    60.869
697.925     70.057    76.150
708.077     69.989    91.054
718.376     70.127   106.193
728.825     70.474   122.335
739.426     70.987   139.954
750.181     71.556   159.420
761.093     72.138  -179.347
772.163     72.632  -156.913
783.394     73.034  -133.191
794.789     73.347  -108.080
806.349     73.562   -82.318
818.078     73.674   -55.692
829.977     73.701   -28.226
842.050     73.632     0.193
854.298     73.463    29.491
866.724     73.211    59.303
879.330     72.845    90.620
892.120     72.386   123.021
905.097     71.831   156.707
918.262     71.193  -168.158
931.618     70.490  -131.442
945.169     69.757   -92.854
958.917     69.060   -52.413
972.864     68.473   -10.074
987.015     68.086    33.678
1001.37     67.924    78.873
1015.94     68.003   124.161
1030.71     68.222   168.444
1045.71     68.514  -147.349
1060.92     68.798  -103.187
1076.35     69.004   -59.957
1092.00     69.129   -16.762
1107.89     69.130    27.117
1124.00     69.024    71.397
1140.35     68.817   116.333
1156.94     68.522   162.613
1173.77     68.164  -150.145
1190.84     67.769  -102.006
1208.16     67.371   -52.990
1225.73     66.987    -2.786
1243.56     66.607    48.400
1261.65     66.213    99.830
1280.00     65.750   151.376
1298.62     65.154  -156.955
1317.51     64.345  -104.349
1336.67     63.246   -50.362
1356.11     61.772     5.478
1375.84     59.869    65.499
1395.85     57.723   132.864
1416.15     56.300  -150.073
1436.75     56.756   -69.837
1457.65     58.516     3.174
1478.85     60.323    68.842
1500.36     61.656   130.294
1522.19     62.515  -169.587
1544.33     62.939  -109.240
1566.79     62.983   -47.664
1589.58     62.718    15.725
1612.70     62.255    81.249
1636.16     61.732   149.537
1659.95     61.295  -139.655
1684.10     61.089   -67.204
1708.60     61.077     5.819
1733.45     61.114    78.076
1758.66     61.091   150.794
1784.24     60.893  -136.148
1810.19     60.543   -62.459
1836.52     60.030    13.571
1863.24     59.491    91.433
1890.34     58.949   171.009
1917.83     58.461  -108.223
1945.73     57.959   -26.409
1974.03     57.370    57.411
2002.74     56.735   143.633
2031.87     56.262  -127.140
2061.43     56.182   -36.293
2091.41     56.625    54.599
2121.83     57.259   143.377
2152.69     57.728  -130.695
2184.01     57.813   -45.548
2215.77     57.430    40.584
2248.00     56.586   128.595
2280.70     55.464  -139.875
2313.87     54.370   -43.606
2347.53     53.761    56.046
2381.68     53.636   155.548
2416.32     53.685  -106.546
2451.46     53.619    -9.748
2487.12     53.331    87.352
2523.30     52.970  -173.908
2560.00     52.609   -74.123
2597.24     52.372    25.880
2635.01     52.126   125.737
2673.34     51.576  -133.794
2712.23     50.600   -31.250
2751.68     49.156    77.322
2791.70     47.671  -164.643
2832.31     47.528   -37.351
2873.50     49.116    88.075
2915.30     51.005  -153.764
2957.70     52.493   -39.683
3000.72     53.278    73.892
3044.37     53.405  -171.968
3088.65     52.859   -54.617
3133.58     51.612    66.985
3179.16     49.861  -164.099
3225.40     48.282   -25.082
3272.31     47.767   119.715
3319.91     48.339   -95.674
3368.20     49.276    45.329
3417.19     50.106  -176.392
3466.89     50.598   -38.902
3517.32     50.754    99.813
3568.48     50.552  -119.576
3620.39     50.235    22.570
3673.05     49.647   166.781
3726.47     48.596   -46.585
3780.67     47.147   108.843
3835.67     46.900   -85.813
3891.46     48.403    74.645
3948.06     49.510  -133.228
4005.49     49.232    20.133
4063.75     48.373  -174.057
4122.86     48.964    -0.627
4182.82     50.135   166.709
4243.66     50.166   -25.298
4305.39     49.789   154.411
4368.01     51.015   -21.077
4431.55     52.157   154.968
4496.01     51.606   -25.378
4561.40     51.076   169.301
4627.75     52.294     3.708
4695.06     52.438  -168.088
4763.35     51.045    33.117
4832.64     51.724  -114.157
4902.93     52.865    87.929
4974.24     52.325   -64.182
5046.60     52.912   153.257
5120.00     53.582     2.737
5194.47     52.174  -140.387
5270.03     52.448    92.539
5346.68     53.670   -47.741
5424.45     52.447   174.523
5503.35     51.776    51.847
5583.40     51.427   -77.418
5664.61     49.349   165.663
5747.01     49.922    55.041
5830.60     48.816   -71.566
5915.41     45.857  -173.214
6001.45     45.790    78.488
6088.74     39.984   -23.662
6177.30     40.928   -83.979
6267.15     38.004   168.048
6358.31     38.139   135.635
6450.80     40.845    37.954
6544.62     40.809   -17.420
6639.82     43.714  -104.570
6736.40     42.224  -161.794
6834.38     46.213   132.037
6933.79     46.082    67.403
7034.64     49.250     9.699
7136.96     49.929   -60.328
7240.77     50.816  -114.168
7346.09     50.947  -171.155
7452.94     50.995   145.832
7561.35     50.960   100.957
7671.33     50.679    69.977
7782.91     50.458    36.981
7896.12     50.174    14.329
8010.97     49.331    -9.889
8127.49     48.414   -22.252
8245.71     46.902   -37.015
8365.65     46.012   -43.164
8487.33     43.517   -51.973
8610.78     42.705   -56.484
8736.03     38.762   -67.764
8863.09     37.431   -73.012
8992.01     32.030   -84.499
9122.80     35.041   -87.832
9255.50     34.546  -108.012
9390.12     35.831   -80.402
9526.70     36.143   -42.793
9665.27     38.370     0.362
9805.86     38.340    54.272
9948.49     38.141   119.159
10093.2     39.486  -175.333
10240.0     38.594  -106.181
10388.9     37.071   -26.557
10540.1     35.772    57.610
10693.4     31.698   160.458
10848.9     28.458   -70.712
11006.7     28.084    51.188
11166.8     25.704  -159.869
11329.2     25.663     3.178
11494.0     27.475   174.183
11661.2     32.435   -38.750
11830.8     34.836    97.185
12002.9     34.103  -118.375
12177.5     34.151    44.541
12354.6     33.858  -149.956
12534.3     32.678    24.085
12716.6     28.707  -144.519
12901.6     29.080    82.946
13089.2     32.416   -75.026
13279.6     32.173   121.673
13472.8     32.689   -23.291
13668.8     28.163   174.905
13867.6     29.529   106.548
14069.3     35.642   -28.462
14273.9     36.780  -140.339
14481.5     36.929   122.844
14692.2     37.820    41.230
14905.9     37.176   -36.591
15122.7     37.957  -101.287
15342.7     38.155  -167.351
15565.8     38.620   138.627
15792.2     37.813    93.934
16021.9     35.769    58.741
16255.0     31.615    20.695
16491.4     24.574   -74.352
16731.3     27.983  -120.134
16974.7     30.087  -113.995
17221.6     30.412   -80.204
17472.1     32.470   -56.016
17726.2     27.055   -25.357
17984.0     22.039    91.907
18245.6     26.659  -149.716
18511.0     27.768   -45.419
18780.2     28.994    61.985
19053.4     24.955   175.552
19330.5     17.576   -13.075
19611.7     23.795  -152.436
19897.0     25.494   -14.059
20186.4     22.628   145.353
20480.0     23.344   -40.803
20777.9     23.196  -116.830
21080.1     20.885  -103.954
21386.7     17.848   159.378
21697.8     18.392     6.950
22013.4     23.088  -160.011
22333.6     21.176  -143.081
22658.4     20.296    84.459
22988.0     18.799     4.483
23322.4     16.299     9.367
23661.6     23.754  -156.816
24005.8     25.875    21.696
24355.0     25.256  -178.497
24709.2     21.098  -161.026
25068.6     24.089    72.455
25433.2     26.725   125.142
25803.2     27.504  -157.186
26178.5     22.093   -77.904
26559.3     20.669   157.953
26945.6     25.412    16.784
27337.5     24.162   116.617
27735.2     20.991    75.841
28138.6     17.861  -166.068
28547.9     16.997   152.307
28963.1     18.008    19.196
29384.4     18.771   173.614
29811.8     17.470    39.889
30245.4     15.851   -89.682
30685.3     17.912    94.948
31131.7     19.419  -171.075
31584.5     22.787   -73.128
32043.9     24.343   112.541
32510.0     17.934   -77.716
32982.8     22.928   -89.244
33462.6     25.140     2.630
33949.3     25.026   106.960
34443.1     22.067   -36.281
34944.1     18.816  -138.336
35452.4     21.618  -137.006
35968.0     23.128   114.702
36491.2     23.726  -168.936
37022.0     20.090   149.144
37560.5     18.734   -81.475
38106.8     17.463   -49.519
38661.1     16.353   -49.752
39223.4     16.790  -152.729
39793.9     16.887   104.230
