Freq[Hz]     dBSPL  Phase[Deg]
5.00000     -2.455    46.645
5.07273     -1.998    48.382
5.14651     -1.647    49.646
5.22137     -1.588    49.586
5.29732     -1.529    49.526
5.37437     -1.471    49.466
5.45254     -1.412    49.405
5.53185     -1.671    49.716
5.61231     -2.266    50.420
5.69394     -2.862    51.123
5.77676     -3.457    51.827
5.86079     -4.060    52.691
5.94604     -5.155    62.985
6.03252     -6.249    73.278
6.12027     -7.344    83.572
6.20929     -8.438    93.866
6.29961     -7.498   105.022
6.39124     -6.106   116.369
6.48420     -4.714   127.717
6.57851     -3.321   139.064
6.67420     -2.256   140.362
6.77128     -1.244   140.029
6.86977     -0.232   139.696
6.96969      0.668   139.043
7.07107      0.719   135.959
7.17392      0.770   132.876
7.27827      0.822   129.793
7.38413      0.068   126.357
7.49154     -1.309   122.648
7.60050     -2.685   118.940
7.71105     -4.386   124.085
7.82321     -7.514   168.116
7.93701    -10.642  -147.854
8.05245    -13.769  -103.823
8.16958     -9.294  -103.743
8.28841     -4.534  -105.304
8.40896      0.225  -106.866
8.53128      1.750  -113.122
8.65537      2.858  -119.983
8.78126      3.966  -126.843
8.90899      3.446  -138.124
9.03857      2.820  -149.694
9.17004      2.212  -164.163
9.30342      1.751   158.292
9.43874      1.289   120.747
9.57603      2.542    89.636
9.71532      6.415    68.357
9.85663     10.287    47.078
10.0000     12.955    35.523
10.1455     15.288    26.678
10.2930     17.383    18.501
10.4427     18.817    12.193
10.5946     20.251     5.884
10.7487     21.253     0.895
10.9051     22.169    -3.831
11.0637     22.922    -7.736
11.2246     23.502   -10.772
11.3879     24.048   -13.411
11.5535     24.472   -14.599
11.7216     24.895   -15.764
11.8921     25.340   -15.528
12.0650     25.785   -15.293
12.2405     26.310   -14.726
12.4186     26.845   -14.115
12.5992     27.385   -13.774
12.7825     27.927   -13.492
12.9684     28.392   -13.282
13.1570     28.839   -13.088
13.3484     29.206   -12.317
13.5426     29.561   -11.453
13.7395     29.955    -9.545
13.9394     30.372    -7.554
14.1421     30.958    -5.230
14.3478     31.597    -3.211
14.5565     32.348    -1.848
14.7683     33.092    -1.318
14.9831     33.830    -1.432
15.2010     34.428    -2.303
15.4221     34.964    -3.268
15.6464     35.338    -4.075
15.8740     35.659    -4.228
16.1049     35.939    -3.861
16.3392     36.331    -2.249
16.5768     36.837    -0.583
16.8179     37.503     1.094
17.0626     38.328     1.401
17.3107     39.154     0.780
17.5625     39.952    -0.984
17.8180     40.546    -3.808
18.0771     40.988    -6.659
18.3401     41.275    -9.318
18.6068     41.381   -10.768
18.8775     41.496   -10.597
19.1521     41.732    -9.244
19.4306     42.177    -7.001
19.7133     42.981    -5.325
20.0000     43.919    -5.376
20.2909     44.840    -6.968
20.5860     45.642    -9.838
20.8855     46.248   -13.439
21.1893     46.584   -16.814
21.4975     46.756   -19.074
21.8102     46.881   -19.846
22.1274     47.094   -19.203
22.4492     47.505   -17.763
22.7758     48.144   -16.542
23.1071     48.919   -16.423
23.4432     49.682   -17.572
23.7841     50.319   -19.505
24.1301     50.817   -21.438
24.4811     51.234   -22.866
24.8372     51.648   -23.661
25.1984     52.134   -24.111
25.5649     52.704   -24.722
25.9368     53.315   -25.875
26.3141     53.902   -27.601
26.6968     54.420   -29.630
27.0851     54.869   -31.593
27.4791     55.284   -33.224
27.8788     55.721   -34.530
28.2843     56.207   -35.758
28.6957     56.732   -37.148
29.1131     57.268   -38.785
29.5365     57.789   -40.582
29.9661     58.289   -42.375
30.4020     58.784   -44.049
30.8442     59.296   -45.607
31.2929     59.828   -47.172
31.7480     60.372   -48.821
32.2098     60.912   -50.551
32.6783     61.441   -52.280
33.1536     61.969   -53.936
33.6359     62.505   -55.540
34.1251     63.058   -57.179
34.6215     63.618   -58.931
35.1250     64.175   -60.790
35.6359     64.722   -62.715
36.1543     65.268   -64.666
36.6802     65.815   -66.658
37.2137     66.365   -68.726
37.7550     66.916   -70.866
38.3041     67.466   -73.082
38.8613     68.017   -75.382
39.4265     68.568   -77.798
40.0000     69.111   -80.309
40.5818     69.651   -82.904
41.1721     70.189   -85.642
41.7710     70.713   -88.572
42.3785     71.201   -91.653
42.9949     71.654   -94.664
43.6203     72.100   -97.498
44.2548     72.573  -100.277
44.8985     73.065  -103.243
45.5515     73.547  -106.398
46.2141     74.012  -109.591
46.8863     74.475  -112.761
47.5683     74.946  -116.030
48.2602     75.404  -119.460
48.9621     75.834  -122.959
49.6743     76.244  -126.465
50.3968     76.638  -130.016
51.1299     77.009  -133.648
51.8736     77.354  -137.338
52.6281     77.674  -141.071
53.3936     77.972  -144.849
54.1702     78.251  -148.662
54.9581     78.511  -152.513
55.7575     78.753  -156.402
56.5685     78.974  -160.305
57.3914     79.172  -164.212
58.2261     79.341  -168.105
59.0730     79.473  -171.879
59.9323     79.584  -175.468
60.8040     79.686  -178.906
61.6884     79.784   177.748
62.5857     79.876   174.408
63.4960     79.952   171.066
64.4196     80.010   167.824
65.3566     80.066   164.672
66.3073     80.112   161.553
67.2717     80.143   158.537
68.2502     80.165   155.649
69.2429     80.178   152.906
70.2501     80.194   150.334
71.2719     80.217   147.841
72.3086     80.244   145.352
73.3603     80.262   142.858
74.4274     80.267   140.415
75.5099     80.260   137.981
76.6083     80.212   135.677
77.7226     80.163   133.776
78.8531     80.150   131.963
80.0000     80.139   130.209
81.1636     80.165   128.507
82.3442     80.202   126.607
83.5419     80.234   124.679
84.7570     80.264   122.713
85.9899     80.285   120.815
87.2406     80.298   118.969
88.5096     80.304   117.318
89.7970     80.333   115.698
91.1031     80.356   113.852
92.4282     80.337   111.886
93.7726     80.278   109.959
95.1366     80.181   108.357
96.5204     80.119   107.177
97.9243     80.096   106.155
99.3486     80.110   105.254
100.794     80.148   104.333
102.260     80.205   103.319
103.747     80.260   102.153
105.256     80.311   100.831
106.787     80.350    99.420
108.340     80.378    97.916
109.916     80.360    96.516
111.515     80.345    95.561
113.137     80.369    94.746
114.783     80.416    93.843
116.452     80.466    92.824
118.146     80.521    91.734
119.865     80.573    90.645
121.608     80.636    89.614
123.377     80.706    88.534
125.171     80.772    87.384
126.992     80.834    86.162
128.839     80.898    84.877
130.713     80.957    83.463
132.615     80.985    82.056
134.543     80.984    80.823
136.500     81.001    79.726
138.486     81.035    78.683
140.500     81.076    77.456
142.544     81.118    75.918
144.617     81.084    74.426
146.721     81.024    73.657
148.855     81.085    73.072
151.020     81.217    71.719
153.217     81.235    69.477
155.445     81.082    67.913
157.706     81.007    66.891
160.000     80.836    65.781
162.327     80.723    65.978
164.688     80.762    65.814
167.084     80.865    65.735
169.514     81.119    63.496
171.980     80.845    60.230
174.481     80.483    60.142
177.019     80.383    60.909
179.594     80.359    60.990
182.206     80.321    61.039
184.856     80.326    61.668
187.545     80.452    61.960
190.273     80.651    61.791
193.041     80.855    60.629
195.849     80.914    59.140
198.697     80.945    57.925
201.587     80.969    56.507
204.520     80.878    54.793
207.494     80.784    54.133
210.512     80.701    53.288
213.574     80.735    51.918
216.681     80.399    50.698
219.833     80.334    51.389
223.030     80.255    50.521
226.274     80.105    50.160
229.565     79.986    50.316
232.905     79.813    50.163
236.292     79.692    51.208
239.729     79.683    52.144
243.216     79.755    52.952
246.754     79.869    52.959
250.343     79.908    52.319
253.984     79.919    53.002
257.678     80.067    52.359
261.426     80.110    51.860
265.229     80.202    50.753
269.087     79.965    48.671
273.001     79.661    49.419
276.972     79.605    50.612
281.000     79.592    51.294
285.088     79.706    51.526
289.234     79.765    50.963
293.441     79.691    51.074
297.709     79.815    50.325
302.040     79.743    49.386
306.433     79.529    47.607
310.890     79.204    48.771
315.412     79.322    49.174
320.000     79.265    48.352
324.655     79.022    45.926
329.377     78.561    47.708
334.168     78.558    48.839
339.028     78.433    49.697
343.959     78.494    50.381
348.962     78.485    50.377
354.038     78.481    50.461
359.188     78.520    50.489
364.412     78.562    48.983
369.713     78.202    47.803
375.090     78.049    48.810
380.546     78.050    49.531
386.081     78.072    49.898
391.697     78.239    49.988
397.394     78.270    49.107
403.175     78.320    47.561
409.039     78.106    46.654
414.989     78.140    46.538
421.025     78.126    45.848
427.149     78.139    45.004
433.362     78.156    44.027
439.665     78.163    42.870
446.060     78.065    40.635
452.548     77.846    38.891
459.131     77.680    37.562
465.809     77.428    36.226
472.584     77.225    35.238
479.458     76.956    34.134
486.432     76.709    33.744
493.507     76.438    33.175
500.686     76.129    32.875
507.968     75.834    33.165
515.357     75.555    33.683
522.853     75.279    34.701
530.458     75.038    36.136
538.174     74.842    37.866
546.002     74.686    39.934
553.943     74.591    42.306
562.001     74.559    44.851
570.175     74.590    47.492
578.469     74.690    50.018
586.883     74.843    52.315
595.419     75.040    54.266
604.080     75.263    55.898
612.866     75.500    57.191
621.780     75.740    58.096
630.824     75.975    58.689
640.000     76.185    58.963
649.309     76.367    59.001
658.753     76.516    58.874
668.335     76.628    58.585
678.056     76.695    58.213
687.919     76.724    57.806
697.925     76.706    57.423
708.077     76.647    57.150
718.376     76.547    56.983
728.825     76.415    57.044
739.426     76.252    57.344
750.181     76.070    57.995
761.093     75.876    58.962
772.163     75.695    60.277
783.394     75.540    61.948
794.789     75.424    63.998
806.349     75.368    66.283
818.078     75.372    68.689
829.977     75.449    71.092
842.050     75.588    73.355
854.298     75.786    75.305
866.724     76.017    76.927
879.330     76.275    78.148
892.120     76.539    78.979
905.097     76.785    79.427
918.262     77.009    79.544
931.618     77.201    79.374
945.169     77.351    79.035
958.917     77.453    78.555
972.864     77.508    78.024
987.015     77.516    77.515
1001.37     77.484    77.108
1015.94     77.416    76.868
1030.71     77.323    76.849
1045.71     77.223    77.021
1060.92     77.125    77.460
1076.35     77.049    78.025
1092.00     77.001    78.694
1107.89     76.983    79.320
1124.00     76.990    79.770
1140.35     77.013    79.943
1156.94     77.030    79.771
1173.77     77.023    79.229
1190.84     76.964    78.345
1208.16     76.841    77.220
1225.73     76.626    75.912
1243.56     76.311    74.582
1261.65     75.885    73.385
1280.00     75.350    72.535
1298.62     74.704    72.268
1317.51     73.954    72.791
1336.67     73.125    74.414
1356.11     72.267    77.386
1375.84     71.443    81.886
1395.85     70.742    87.927
1416.15     70.262    95.100
1436.75     70.050   102.752
1457.65     70.111   110.122
1478.85     70.375   116.714
1500.36     70.762   122.119
1522.19     71.197   126.476
1544.33     71.629   129.942
1566.79     72.022   132.730
1589.58     72.375   135.089
1612.70     72.689   137.213
1636.16     72.975   139.209
1659.95     73.251   141.058
1684.10     73.525   142.787
1708.60     73.793   144.308
1733.45     74.051   145.612
1758.66     74.288   146.714
1784.24     74.502   147.719
1810.19     74.695   148.598
1836.52     74.884   149.396
1863.24     75.062   150.043
1890.34     75.219   150.438
1917.83     75.331   150.593
1945.73     75.367   150.671
1974.03     75.322   150.998
2002.74     75.229   151.914
2031.87     75.159   153.699
2061.43     75.222   156.043
2091.41     75.476   158.243
2121.83     75.880   159.384
2152.69     76.304   158.990
2184.01     76.619   157.194
2215.77     76.732   154.574
2248.00     76.616   151.944
2280.70     76.304   150.069
2313.87     75.904   149.505
2347.53     75.561   150.266
2381.68     75.395   151.680
2416.32     75.414   152.718
2451.46     75.523   152.722
2487.12     75.601   151.722
2523.30     75.592   150.153
2560.00     75.506   148.464
2597.24     75.390   146.806
2635.01     75.285   145.005
2673.34     75.180   142.769
2712.23     75.030   140.022
2751.68     74.801   136.955
2791.70     74.506   133.939
2832.31     74.203   131.059
2873.50     73.927   128.071
2915.30     73.663   124.578
2957.70     73.341   120.577
3000.72     72.931   116.566
3044.37     72.493   113.087
3088.65     72.137   110.097
3133.58     71.899   106.965
3179.16     71.726   103.180
3225.40     71.540    99.182
3272.31     71.367    95.430
3319.91     71.298    91.884
3368.20     71.325    87.961
3417.19     71.371    83.656
3466.89     71.401    79.411
3517.32     71.474    75.359
3568.48     71.595    71.123
3620.39     71.679    66.679
3673.05     71.718    62.518
3726.47     71.799    58.678
3780.67     71.905    54.259
3835.67     71.854    49.240
3891.46     71.572    44.987
3948.06     71.254    42.198
4005.49     71.000    39.885
4063.75     70.637    37.823
4122.86     70.235    37.810
4182.82     70.213    39.103
4243.66     70.467    38.185
4305.39     70.471    35.448
4368.01     70.253    33.765
4431.55     70.139    32.891
4496.01     70.032    31.375
4561.40     69.829    30.247
4627.75     69.705    29.435
4695.06     69.541    27.959
4763.35     69.242    27.439
4832.64     69.147    27.807
4902.93     69.153    26.871
4974.24     69.016    25.887
5046.60     68.990    25.344
5120.00     68.975    23.670
5194.47     68.818    22.316
5270.03     68.777    21.069
5346.68     68.622    18.543
5424.45     68.241    17.177
5503.35     67.993    16.769
5583.40     67.727    15.983
5664.61     67.428    15.973
5747.01     67.174    15.894
5830.60     66.811    16.549
5915.41     66.585    18.254
6001.45     66.420    19.980
6088.74     66.401    22.255
6177.30     66.458    23.351
6267.15     66.372    24.799
6358.31     66.385    26.949
6450.80     66.435    29.435
6544.62     66.687    32.230
6639.82     67.023    34.274
6736.40     67.497    35.905
6834.38     67.933    36.081
6933.79     68.327    36.517
7034.64     68.743    36.256
7136.96     69.180    36.258
7240.77     69.687    35.103
7346.09     70.134    33.517
7452.94     70.467    30.696
7561.35     70.621    29.040
7671.33     70.868    27.487
7782.91     71.192    26.321
7896.12     71.527    23.786
8010.97     71.847    21.917
8127.49     72.164    18.803
8245.71     72.488    15.438
8365.65     72.611    10.642
8487.33     72.601     5.662
8610.78     72.313     0.852
8736.03     71.961    -4.098
8863.09     71.328    -7.754
8992.01     70.691   -10.596
9122.80     70.131   -12.029
9255.50     69.687   -13.288
9390.12     69.400   -15.573
9526.70     69.021   -18.259
9665.27     68.529   -21.593
9805.86     67.892   -24.078
9948.49     67.279   -24.978
10093.2     66.802   -25.243
10240.0     66.530   -25.351
10388.9     66.235   -26.316
10540.1     65.831   -27.295
10693.4     65.310   -27.562
10848.9     64.817   -25.627
11006.7     64.623   -23.050
11166.8     64.714   -20.872
11329.2     64.948   -20.668
11494.0     65.121   -21.147
11661.2     65.233   -22.666
11830.8     65.353   -24.172
12002.9     65.508   -27.304
12177.5     65.521   -31.620
12354.6     65.219   -36.631
12534.3     64.719   -42.200
12716.6     63.547   -46.738
12901.6     62.537   -46.601
13089.2     61.771   -46.673
13279.6     61.001   -47.034
13472.8     60.199   -47.483
13668.8     59.186   -48.033
13867.6     57.818   -48.838
14069.3     55.612   -45.526
14273.9     53.809   -32.634
14481.5     52.628   -15.480
14692.2     53.150     6.736
14905.9     55.511    20.998
15122.7     57.950    21.466
15342.7     59.109    16.752
15565.8     59.657    13.717
15792.2     59.966    11.056
16021.9     60.268     9.164
16255.0     60.400     5.863
16491.4     60.128     2.502
16731.3     59.469     1.950
16974.7     58.934     4.028
17221.6     58.505     9.083
17472.1     58.764    16.307
17726.2     59.615    19.066
17984.0     60.218    19.601
18245.6     60.676    19.822
18511.0     61.281    20.106
18780.2     61.983    18.807
19053.4     62.550    15.580
19330.5     62.863    12.309
19611.7     63.243     9.452
19897.0     63.668     4.688
20186.4     63.786    -1.851
20480.0     63.349    -7.408
20777.9     62.889    -9.454
21080.1     62.926   -10.679
21386.7     63.078   -14.259
21697.8     63.171   -19.882
22013.4     62.862   -26.825
22333.6     62.181   -32.343
22658.4     61.495   -35.527
22988.0     61.075   -38.481
23322.4     60.602   -42.780
23661.6     60.062   -46.385
24005.8     59.697   -50.344
24355.0     59.378   -56.207
24709.2     58.785   -63.941
25068.6     57.984   -71.430
25433.2     57.192   -80.854
25803.2     55.917   -92.098
26178.5     54.252  -102.146
26559.3     52.627  -112.109
26945.6     51.041  -124.370
27337.5     49.355  -140.853
27735.2     47.906  -163.570
28138.6     47.060   165.101
28547.9     46.782   130.341
28963.1     47.194   100.690
29384.4     47.614    77.924
29811.8     47.794    62.391
30245.4     48.002    52.332
30685.3     48.240    42.362
31131.7     47.843    34.415
31584.5     47.235    27.729
32043.9     46.321    24.387
32510.0     45.325    23.448
32982.8     44.711    27.155
33462.6     45.074    28.233
33949.3     45.183    23.590
34443.1     44.621    19.130
34944.1     44.315    16.419
35452.4     44.002    10.906
35968.0     43.453     1.978
36491.2     42.296    -7.224
37022.0     40.501   -15.263
37560.5     38.653   -22.286
38106.8     36.684   -28.679
38661.1     34.289   -34.167
39223.4     31.208   -44.270
39793.9     28.031    -2.794
