Freq[Hz]     dBSPL  Phase[Deg]
5.00000    -30.655   103.866
5.07273    -27.240    98.336
5.14651    -24.526    92.824
5.22137    -23.773    87.362
5.29732    -23.020    81.901
5.37437    -22.267    76.439
5.45254    -21.514    70.978
5.53185    -21.176    64.489
5.61231    -21.277    56.913
5.69394    -21.378    49.337
5.77676    -21.480    41.761
5.86079    -21.591    34.064
5.94604    -22.290    19.266
6.03252    -22.988     4.468
6.12027    -23.687   -10.330
6.20929    -24.386   -25.128
6.29961    -23.896   -44.872
6.39124    -23.143   -65.713
6.48420    -22.389   -86.554
6.57851    -21.635  -107.395
6.67420    -20.693  -121.001
6.77128    -19.721  -133.432
6.86977    -18.748  -145.863
6.96969    -17.889  -158.223
7.07107    -17.892  -170.043
7.17392    -17.896   178.138
7.27827    -17.899   166.319
7.38413    -18.266   148.779
7.49154    -18.913   126.819
7.60050    -19.561   104.859
7.71105    -19.756    82.395
7.82321    -17.962    57.718
7.93701    -16.169    33.041
8.05245    -14.375     8.365
8.16958    -12.834    -4.237
8.28841    -11.303   -16.388
8.40896     -9.772   -28.539
8.53128     -9.437   -38.074
8.65537     -9.257   -47.271
8.78126     -9.077   -56.469
8.90899    -12.362   -69.052
9.03857    -15.875   -81.857
9.17004    -18.443  -100.455
9.30342    -13.502  -165.163
9.43874     -8.560   130.129
9.57603     -4.119    87.810
9.71532     -0.443    79.698
9.85663      3.233    71.586
10.0000      5.735    64.325
10.1455      7.909    57.301
10.2930      9.898    50.401
10.4427     11.371    43.846
10.5946     12.843    37.290
10.7487     13.958    31.120
10.9051     15.001    25.027
11.0637     15.887    19.215
11.2246     16.606    13.699
11.3879     17.272     8.342
11.5535     17.739     3.560
11.7216     18.203    -1.207
11.8921     18.482    -5.127
12.0650     18.761    -9.046
12.2405     18.929   -12.174
12.4186     19.083   -15.199
12.5992     19.174   -17.568
12.7825     19.251   -19.791
12.9684     19.285   -21.446
13.1570     19.309   -22.970
13.3484     19.297   -23.828
13.5426     19.281   -24.577
13.7395     19.271   -24.355
13.9394     19.275   -23.981
14.1421     19.390   -22.750
14.3478     19.576   -21.488
14.5565     19.916   -20.159
14.7683     20.355   -19.501
14.9831     20.870   -19.362
15.2010     21.367   -20.720
15.4221     21.822   -22.576
15.6464     22.105   -25.502
15.8740     22.196   -28.563
16.1049     22.136   -31.731
16.3392     21.692   -33.538
16.5768     21.126   -33.720
16.8179     20.403   -31.615
17.0626     19.998   -24.578
17.3107     20.065   -16.489
17.5625     20.788    -7.765
17.8180     22.086    -3.867
18.0771     23.342    -2.697
18.3401     24.475    -4.088
18.6068     25.241    -7.469
18.8775     25.700   -11.109
19.1521     25.925   -14.450
19.4306     25.949   -17.060
19.7133     25.851   -18.031
20.0000     25.831   -17.766
20.2909     25.954   -17.029
20.5860     26.230   -16.470
20.8855     26.621   -16.801
21.1893     26.982   -18.532
21.4975     27.205   -20.950
21.8102     27.277   -23.409
22.1274     27.224   -25.322
22.4492     27.118   -26.229
22.7758     27.069   -25.980
23.1071     27.187   -24.897
23.4432     27.527   -23.729
23.7841     28.056   -23.241
24.1301     28.672   -23.605
24.4811     29.319   -24.624
24.8372     29.973   -26.039
25.1984     30.633   -27.640
25.5649     31.297   -29.283
25.9368     31.966   -30.843
26.3141     32.637   -32.173
26.6968     33.315   -33.122
27.0851     34.014   -33.604
27.4791     34.750   -33.634
27.8788     35.519   -33.343
28.2843     36.303   -32.863
28.6957     37.082   -32.242
29.1131     37.839   -31.485
29.5365     38.574   -30.629
29.9661     39.287   -29.794
30.4020     39.970   -29.148
30.8442     40.598   -28.840
31.2929     41.153   -28.781
31.7480     41.639   -28.813
32.2098     42.081   -28.784
32.6783     42.527   -28.680
33.1536     43.014   -28.709
33.6359     43.543   -29.095
34.1251     44.092   -29.971
34.6215     44.640   -31.196
35.1250     45.187   -32.543
35.6359     45.768   -33.929
36.1543     46.392   -35.409
36.6802     47.052   -37.060
37.2137     47.729   -38.838
37.7550     48.413   -40.602
38.3041     49.116   -42.286
38.8613     49.836   -43.962
39.4265     50.563   -45.699
40.0000     51.282   -47.483
40.5818     51.995   -49.313
41.1721     52.704   -51.295
41.7710     53.396   -53.511
42.3785     54.044   -55.917
42.9949     54.656   -58.305
43.6203     55.261   -60.611
44.2548     55.884   -62.961
44.8985     56.515   -65.500
45.5515     57.143   -68.205
46.2141     57.765   -71.017
46.8863     58.386   -73.952
47.5683     59.004   -77.060
48.2602     59.608   -80.308
48.9621     60.205   -83.673
49.6743     60.792   -87.192
50.3968     61.359   -90.864
51.1299     61.899   -94.593
51.8736     62.421   -98.319
52.6281     62.927  -102.085
53.3936     63.405  -105.921
54.1702     63.849  -109.790
54.9581     64.259  -113.686
55.7575     64.639  -117.663
56.5685     64.991  -121.757
57.3914     65.321  -125.980
58.2261     65.628  -130.311
59.0730     65.918  -134.640
59.9323     66.203  -138.847
60.8040     66.491  -142.874
61.6884     66.771  -146.634
62.5857     67.041  -150.107
63.4960     67.280  -153.344
64.4196     67.468  -156.384
65.3566     67.603  -159.253
66.3073     67.700  -162.122
67.2717     67.761  -165.113
68.2502     67.809  -168.216
69.2429     67.868  -171.418
70.2501     67.954  -174.655
71.2719     68.076  -177.823
72.3086     68.222   179.107
73.3603     68.367   176.211
74.4274     68.503   173.532
75.5099     68.616   170.919
76.6083     68.687   168.405
77.7226     68.749   166.037
78.8531     68.832   163.621
80.0000     68.937   161.092
81.1636     69.070   158.459
82.3442     69.224   155.789
83.5419     69.395   153.141
84.7570     69.567   150.556
85.9899     69.731   148.059
87.2406     69.877   145.696
88.5096     70.018   143.438
89.7970     70.159   141.039
91.1031     70.284   138.376
92.4282     70.391   135.508
93.7726     70.490   132.597
95.1366     70.591   129.876
96.5204     70.714   127.465
97.9243     70.852   125.268
99.3486     70.988   123.176
100.794     71.116   120.982
102.260     71.227   118.563
103.747     71.335   115.986
105.256     71.450   113.328
106.787     71.568   110.652
108.340     71.674   107.958
109.916     71.734   105.245
111.515     71.773   102.752
113.137     71.830   100.345
114.783     71.896    97.893
116.452     71.951    95.470
118.146     72.000    93.085
119.865     72.050    90.673
121.608     72.104    88.220
123.377     72.152    85.819
125.171     72.192    83.451
126.992     72.208    81.065
128.839     72.205    78.631
130.713     72.188    76.132
132.615     72.161    73.711
134.543     72.129    71.377
136.500     72.106    69.075
138.486     72.079    66.921
140.500     72.029    64.609
142.544     71.958    62.289
144.617     71.883    60.288
146.721     71.810    58.578
148.855     71.790    56.764
151.020     71.769    54.609
153.217     71.695    52.369
155.445     71.637    50.387
157.706     71.581    48.032
160.000     71.353    46.098
162.327     71.185    45.236
164.688     71.139    44.120
167.084     71.142    42.800
169.514     71.164    40.538
171.980     70.928    38.133
174.481     70.684    37.210
177.019     70.591    36.562
179.594     70.550    35.917
182.206     70.526    35.180
184.856     70.549    34.414
187.545     70.561    33.406
190.273     70.565    31.953
193.041     70.573    29.993
195.849     70.556    28.468
198.697     70.508    27.057
201.587     70.397    25.050
204.520     70.189    23.480
207.494     70.062    22.831
210.512     69.909    22.402
213.574     69.920    20.999
216.681     69.814    19.738
219.833     69.698    19.218
223.030     69.608    18.713
226.274     69.604    17.875
229.565     69.611    16.813
232.905     69.471    15.879
236.292     69.434    15.461
239.729     69.451    14.990
243.216     69.516    14.098
246.754     69.503    12.268
250.343     69.351    10.952
253.984     69.278    10.701
257.678     69.257     9.771
261.426     69.256     8.858
265.229     69.204     7.633
269.087     69.017     6.137
273.001     68.884     6.466
276.972     68.927     6.183
281.000     68.917     5.102
285.088     68.944     4.669
289.234     68.969     3.853
293.441     68.984     2.229
297.709     68.911     0.320
302.040     68.862    -0.637
306.433     68.566    -1.794
310.890     68.531    -1.084
315.412     68.616    -2.468
320.000     68.468    -4.214
324.655     68.221    -5.046
329.377     68.084    -4.338
334.168     68.141    -5.105
339.028     68.070    -5.717
343.959     68.127    -7.207
348.962     67.873    -8.991
354.038     67.661    -9.250
359.188     67.618    -9.658
364.412     67.447   -11.190
369.713     67.312   -11.057
375.090     67.274   -12.129
380.546     67.117   -12.830
386.081     67.026   -13.819
391.697     66.781   -15.436
397.394     66.592   -16.102
403.175     66.396   -16.088
409.039     66.305   -16.333
414.989     66.230   -16.607
421.025     66.170   -17.205
427.149     66.128   -17.807
433.362     66.063   -18.236
439.665     66.037   -18.625
446.060     65.986   -19.234
452.548     65.943   -19.784
459.131     65.924   -20.296
465.809     65.916   -20.671
472.584     65.891   -21.120
479.458     65.857   -21.637
486.432     65.857   -21.979
493.507     65.802   -22.263
500.686     65.746   -22.747
507.968     65.708   -23.246
515.357     65.679   -23.714
522.853     65.640   -23.872
530.458     65.582   -24.084
538.174     65.537   -24.453
546.002     65.496   -24.570
553.943     65.459   -24.742
562.001     65.438   -24.846
570.175     65.395   -24.830
578.469     65.384   -25.116
586.883     65.398   -25.198
595.419     65.409   -25.337
604.080     65.428   -25.439
612.866     65.458   -25.804
621.780     65.501   -25.923
630.824     65.532   -26.348
640.000     65.581   -26.847
649.309     65.612   -27.302
658.753     65.652   -27.905
668.335     65.682   -28.544
678.056     65.703   -29.183
687.919     65.713   -29.857
697.925     65.718   -30.428
708.077     65.701   -30.992
718.376     65.677   -31.573
728.825     65.682   -32.119
739.426     65.667   -32.470
750.181     65.659   -32.715
761.093     65.659   -32.916
772.163     65.686   -33.186
783.394     65.743   -33.294
794.789     65.806   -33.551
806.349     65.924   -33.803
818.078     66.040   -34.138
829.977     66.169   -34.599
842.050     66.304   -35.327
854.298     66.456   -36.320
866.724     66.609   -37.468
879.330     66.739   -38.721
892.120     66.873   -40.305
905.097     66.964   -41.837
918.262     67.042   -43.694
931.618     67.097   -45.491
945.169     67.122   -47.409
958.917     67.118   -49.298
972.864     67.092   -51.146
987.015     67.052   -52.986
1001.37     66.971   -54.743
1015.94     66.887   -56.384
1030.71     66.785   -57.886
1045.71     66.681   -59.237
1060.92     66.561   -60.377
1076.35     66.449   -61.391
1092.00     66.346   -62.214
1107.89     66.266   -62.930
1124.00     66.229   -63.481
1140.35     66.227   -63.988
1156.94     66.282   -64.635
1173.77     66.387   -65.414
1190.84     66.528   -66.549
1208.16     66.684   -68.015
1225.73     66.830   -70.138
1243.56     66.964   -72.721
1261.65     67.042   -75.733
1280.00     67.045   -79.073
1298.62     66.961   -82.603
1317.51     66.777   -86.137
1336.67     66.499   -89.429
1356.11     66.110   -92.232
1375.84     65.659   -94.375
1395.85     65.187   -95.580
1416.15     64.755   -95.795
1436.75     64.435   -95.234
1457.65     64.267   -94.404
1478.85     64.255   -93.732
1500.36     64.361   -93.654
1522.19     64.487   -94.405
1544.33     64.614   -95.879
1566.79     64.675   -97.846
1589.58     64.682   -99.956
1612.70     64.635  -102.017
1636.16     64.553  -103.877
1659.95     64.469  -105.682
1684.10     64.400  -107.493
1708.60     64.313  -109.399
1733.45     64.220  -111.443
1758.66     64.071  -113.484
1784.24     63.874  -115.254
1810.19     63.669  -116.631
1836.52     63.497  -117.457
1863.24     63.424  -118.101
1890.34     63.482  -118.925
1917.83     63.580  -120.521
1945.73     63.666  -123.055
1974.03     63.634  -126.239
2002.74     63.443  -129.500
2031.87     63.087  -132.466
2061.43     62.680  -134.310
2091.41     62.305  -134.959
2121.83     62.070  -134.955
2152.69     61.979  -135.188
2184.01     61.940  -136.084
2215.77     61.861  -137.656
2248.00     61.676  -139.008
2280.70     61.428  -139.777
2313.87     61.251  -139.632
2347.53     61.210  -139.177
2381.68     61.319  -139.317
2416.32     61.464  -140.327
2451.46     61.512  -142.181
2487.12     61.460  -144.195
2523.30     61.285  -145.766
2560.00     61.068  -146.491
2597.24     60.889  -146.206
2635.01     60.849  -145.258
2673.34     60.996  -144.319
2712.23     61.298  -144.250
2751.68     61.599  -145.437
2791.70     61.777  -147.304
2832.31     61.788  -148.753
2873.50     61.809  -148.792
2915.30     62.071  -148.072
2957.70     62.600  -148.366
3000.72     63.165  -150.947
3044.37     63.517  -154.803
3088.65     63.613  -158.428
3133.58     63.665  -160.672
3179.16     63.903  -162.446
3225.40     64.305  -165.408
3272.31     64.597  -170.307
3319.91     64.590  -176.100
3368.20     64.281   179.047
3417.19     63.863   176.209
3466.89     63.596   174.852
3517.32     63.527   173.317
3568.48     63.478   170.664
3620.39     63.265   167.549
3673.05     62.867   165.280
3726.47     62.467   164.847
3780.67     62.294   165.541
3835.67     62.382   165.548
3891.46     62.500   164.053
3948.06     62.495   162.040
4005.49     62.450   160.458
4063.75     62.483   158.620
4122.86     62.484   155.223
4182.82     62.122   150.999
4243.66     61.341   148.820
4305.39     60.679   150.702
4368.01     60.581   152.998
4431.55     60.533   152.502
4496.01     60.095   152.581
4561.40     59.822   156.134
4627.75     60.190   158.736
4695.06     60.508   157.372
4763.35     60.327   155.812
4832.64     60.094   156.868
4902.93     60.230   158.105
4974.24     60.300   157.008
5046.60     59.944   156.431
5120.00     59.653   159.517
5194.47     59.988   162.712
5270.03     60.342   162.636
5346.68     60.396   162.638
5424.45     60.602   163.730
5503.35     60.912   163.083
5583.40     60.939   161.789
5664.61     60.888   162.522
5747.01     61.191   163.097
5830.60     61.349   160.848
5915.41     61.066   160.607
6001.45     61.219   162.417
6088.74     61.404   160.986
6177.30     61.229   161.097
6267.15     61.448   161.981
6358.31     61.601   160.113
6450.80     61.321   158.450
6544.62     60.848   159.265
6639.82     60.536   163.178
6736.40     60.879   168.718
6834.38     61.851   169.652
6933.79     62.246   165.948
7034.64     62.219   164.411
7136.96     62.220   162.879
7240.77     61.968   162.664
7346.09     62.052   164.198
7452.94     62.296   163.068
7561.35     62.202   162.252
7671.33     62.343   160.898
7782.91     61.913   158.506
7896.12     61.582   159.710
8010.97     61.225   159.446
8127.49     60.838   162.789
8245.71     60.908   164.796
8365.65     60.669   167.976
8487.33     61.200   170.497
8610.78     61.253   170.327
8736.03     61.495   171.638
8863.09     61.740   171.229
8992.01     61.952   170.454
9122.80     62.019   166.940
9255.50     61.658   165.683
9390.12     61.349   163.157
9526.70     60.689   163.625
9665.27     60.262   163.676
9805.86     59.515   166.411
9948.49     59.306   168.828
10093.2     58.991   172.574
10240.0     58.863   174.413
10388.9     58.807   177.992
10540.1     58.839   179.407
10693.4     59.003  -178.800
10848.9     59.015  -179.628
11006.7     58.951   179.773
11166.8     58.732   177.685
11329.2     58.369   176.879
11494.0     57.691   174.649
11661.2     57.066   172.331
11830.8     55.836   170.540
12002.9     54.044   167.624
12177.5     51.672   171.288
12354.6     48.463  -173.857
12534.3     47.118  -147.166
12716.6     48.574  -121.127
12901.6     51.100  -107.330
13089.2     53.482  -104.979
13279.6     55.055  -109.171
13472.8     55.699  -112.611
13668.8     56.151  -115.825
13867.6     56.485  -121.953
14069.3     56.182  -129.150
14273.9     55.158  -135.359
14481.5     53.459  -139.805
14692.2     51.269  -141.526
14905.9     48.513  -136.034
15122.7     45.832  -120.576
15342.7     44.356   -94.811
15565.8     45.811   -68.508
15792.2     48.581   -59.536
16021.9     50.369   -61.082
16255.0     51.370   -65.916
16491.4     51.518   -74.329
16731.3     50.941   -82.956
16974.7     49.514   -93.950
17221.6     46.288  -101.732
17472.1     41.905   -97.979
17726.2     37.466   -77.749
17984.0     35.064   -38.683
18245.6     36.746    -4.482
18511.0     39.275     7.461
18780.2     40.343    13.975
19053.4     40.626    19.740
19330.5     41.330    29.444
19611.7     42.233    36.675
19897.0     42.861    38.571
20186.4     42.900    39.999
20480.0     42.248    43.109
20777.9     41.492    53.416
21080.1     41.768    66.549
21386.7     42.490    74.341
21697.8     43.268    81.229
22013.4     44.051    87.346
22333.6     45.164    90.325
22658.4     45.778    88.099
22988.0     45.620    85.380
23322.4     45.215    86.074
23661.6     44.578    86.612
24005.8     44.058    88.618
24355.0     43.228    91.191
24709.2     42.479    92.594
25068.6     41.894    93.701
25433.2     40.769    92.353
25803.2     39.756    93.070
26178.5     38.257    93.662
26559.3     37.112    95.734
26945.6     36.168    94.021
27337.5     34.984    91.592
27735.2     33.566    87.821
28138.6     32.183    84.633
28547.9     31.814    77.110
28963.1     31.128    63.255
29384.4     30.052    50.427
29811.8     29.548    40.377
30245.4     30.137    27.208
30685.3     29.060     8.869
31131.7     27.634   -15.376
31584.5     23.673  -179.217
32043.9     18.811   165.140
32510.0     16.755  -126.136
32982.8     19.067  -130.370
33462.6     22.888    41.839
33949.3     24.853   104.592
34443.1     24.864    26.828
34944.1     24.679   -38.445
35452.4     23.666    14.961
35968.0     23.747   112.621
36491.2     23.033  -148.582
37022.0     21.320   -77.885
37560.5     22.499  -171.313
38106.8     21.740   -56.901
38661.1     19.700     8.060
39223.4     19.621    96.113
39793.9     18.344  -132.024
