Freq[Hz]     dBSPL  Phase[Deg]
5.00000    -33.042   104.973
5.07273    -29.627    99.490
5.14651    -26.914    94.026
5.22137    -26.162    88.615
5.29732    -25.411    83.203
5.37437    -24.660    77.791
5.45254    -23.908    72.380
5.53185    -23.573    65.941
5.61231    -23.677    58.414
5.69394    -23.782    50.887
5.77676    -23.886    43.361
5.86079    -24.001    35.714
5.94604    -24.704    20.961
6.03252    -25.408     6.209
6.12027    -26.112    -8.543
6.20929    -26.815   -23.296
6.29961    -26.331   -43.000
6.39124    -25.584   -63.801
6.48420    -24.836   -84.603
6.57851    -24.088  -105.405
6.67420    -23.153  -118.980
6.77128    -22.188  -131.382
6.86977    -21.222  -143.783
6.96969    -20.370  -156.115
7.07107    -20.381  -167.915
7.17392    -20.392  -179.716
7.27827    -20.402   168.484
7.38413    -20.777   150.956
7.49154    -21.432   129.002
7.60050    -22.088   107.049
7.71105    -22.291    84.590
7.82321    -20.503    59.908
7.93701    -18.716    35.227
8.05245    -16.929    10.546
8.16958    -15.395    -2.071
8.28841    -13.870   -14.237
8.40896    -12.345   -26.403
8.53128    -12.015   -35.960
8.65537    -11.839   -45.181
8.78126    -11.663   -54.402
8.90899    -14.951   -67.014
9.03857    -18.466   -79.849
9.17004    -21.038   -98.476
9.30342    -16.096  -163.217
9.43874    -11.155   132.043
9.57603     -6.714    89.692
9.71532     -3.036    81.549
9.85663      0.642    73.405
10.0000      3.146    66.117
10.1455      5.324    59.066
10.2930      7.318    52.141
10.4427      8.796    45.567
10.5946     10.274    38.993
10.7487     11.396    32.814
10.9051     12.447    26.713
11.0637     13.341    20.901
11.2246     14.069    15.393
11.3879     14.744    10.047
11.5535     15.221     5.291
11.7216     15.695     0.549
11.8921     15.984    -3.325
12.0650     16.274    -7.199
12.2405     16.451   -10.263
12.4186     16.614   -13.222
12.5992     16.714   -15.507
12.7825     16.800   -17.642
12.9684     16.840   -19.194
13.1570     16.869   -20.610
13.3484     16.861   -21.347
13.5426     16.847   -21.973
13.7395     16.836   -21.615
13.9394     16.839   -21.105
14.1421     16.947   -19.734
14.3478     17.125   -18.332
14.5565     17.454   -16.865
14.7683     17.878   -16.076
14.9831     18.376   -15.812
15.2010     18.853   -17.063
15.4221     19.285   -18.823
15.6464     19.541   -21.678
15.8740     19.605   -24.690
16.1049     19.514   -27.828
16.3392     19.038   -29.653
16.5768     18.440   -29.876
16.8179     17.684   -27.843
17.0626     17.248   -20.929
17.3107     17.285   -12.991
17.5625     17.981    -4.452
17.8180     19.256    -0.789
18.0771     20.493     0.119
18.3401     21.613    -1.562
18.6068     22.372    -5.267
18.8775     22.832    -9.252
19.1521     23.066   -12.952
19.4306     23.107   -15.931
19.7133     23.035   -17.273
20.0000     23.054   -17.369
20.2909     23.223   -16.975
20.5860     23.556   -16.733
20.8855     24.013   -17.346
21.1893     24.450   -19.300
21.4975     24.758   -21.877
21.8102     24.922   -24.422
22.1274     24.966   -26.339
22.4492     24.961   -27.157
22.7758     25.015   -26.717
23.1071     25.236   -25.335
23.4432     25.674   -23.757
23.7841     26.294   -22.740
24.1301     26.989   -22.470
24.4811     27.700   -22.766
24.8372     28.402   -23.385
25.1984     29.088   -24.142
25.5649     29.758   -24.921
25.9368     30.409   -25.627
26.3141     31.041   -26.147
26.6968     31.659   -26.360
27.0851     32.284   -26.207
27.4791     32.929   -25.729
27.8788     33.603   -25.071
28.2843     34.287   -24.367
28.6957     34.967   -23.662
29.1131     35.633   -22.949
29.5365     36.286   -22.251
29.9661     36.930   -21.665
30.4020     37.562   -21.338
30.8442     38.155   -21.393
31.2929     38.693   -21.710
31.7480     39.177   -22.106
32.2098     39.634   -22.406
32.6783     40.107   -22.567
33.1536     40.633   -22.787
33.6359     41.206   -23.282
34.1251     41.803   -24.171
34.6215     42.396   -25.317
35.1250     42.985   -26.511
35.6359     43.597   -27.674
36.1543     44.243   -28.892
36.6802     44.914   -30.266
37.2137     45.590   -31.780
37.7550     46.264   -33.315
38.3041     46.950   -34.830
38.8613     47.651   -36.400
39.4265     48.361   -38.100
40.0000     49.068   -39.899
40.5818     49.778   -41.780
41.1721     50.493   -43.823
41.7710     51.200   -46.086
42.3785     51.870   -48.500
42.9949     52.509   -50.843
43.6203     53.141   -53.046
44.2548     53.787   -55.235
44.8985     54.436   -57.571
45.5515     55.071   -60.056
46.2141     55.692   -62.656
46.8863     56.303   -65.415
47.5683     56.906   -68.411
48.2602     57.494   -71.622
48.9621     58.077   -75.023
49.6743     58.661   -78.641
50.3968     59.236   -82.447
51.1299     59.798   -86.312
51.8736     60.354   -90.141
52.6281     60.905   -93.945
53.3936     61.435   -97.735
54.1702     61.930  -101.465
54.9581     62.387  -105.134
55.7575     62.807  -108.815
56.5685     63.184  -112.570
57.3914     63.527  -116.443
58.2261     63.835  -120.444
59.0730     64.112  -124.499
59.9323     64.377  -128.508
60.8040     64.643  -132.430
61.6884     64.904  -136.189
62.5857     65.162  -139.747
63.4960     65.402  -143.137
64.4196     65.608  -146.361
65.3566     65.780  -149.399
66.3073     65.928  -152.378
67.2717     66.053  -155.378
68.2502     66.169  -158.365
69.2429     66.293  -161.328
70.2501     66.430  -164.228
71.2719     66.587  -167.014
72.3086     66.751  -169.717
73.3603     66.902  -172.310
74.4274     67.039  -174.774
75.5099     67.158  -177.249
76.6083     67.244  -179.668
77.7226     67.332   178.069
78.8531     67.448   175.817
80.0000     67.585   173.537
81.1636     67.739   171.219
82.3442     67.897   168.873
83.5419     68.055   166.479
84.7570     68.207   164.011
85.9899     68.356   161.472
87.2406     68.507   158.944
88.5096     68.684   156.498
89.7970     68.888   154.016
91.1031     69.090   151.479
92.4282     69.264   148.962
93.7726     69.399   146.532
95.1366     69.503   144.265
96.5204     69.605   142.136
97.9243     69.721   140.004
99.3486     69.857   137.826
100.794     70.014   135.540
102.260     70.174   133.144
103.747     70.330   130.738
105.256     70.479   128.331
106.787     70.616   125.889
108.340     70.736   123.367
109.916     70.814   120.780
111.515     70.875   118.411
113.137     70.956   116.146
114.783     71.043   113.837
116.452     71.121   111.547
118.146     71.195   109.307
119.865     71.269   107.078
121.608     71.338   104.833
123.377     71.392   102.603
125.171     71.434   100.312
126.992     71.461    97.923
128.839     71.482    95.472
130.713     71.502    93.003
132.615     71.513    90.683
134.543     71.518    88.519
136.500     71.523    86.422
138.486     71.514    84.443
140.500     71.477    82.265
142.544     71.426    80.032
144.617     71.378    78.125
146.721     71.334    76.580
148.855     71.332    74.985
151.020     71.317    72.984
153.217     71.253    70.805
155.445     71.215    68.858
157.706     71.187    66.574
160.000     70.991    64.769
162.327     70.852    64.085
164.688     70.825    63.173
167.084     70.836    62.041
169.514     70.866    59.877
171.980     70.654    57.565
174.481     70.434    56.831
177.019     70.346    56.399
179.594     70.303    55.874
182.206     70.287    55.174
184.856     70.332    54.476
187.545     70.367    53.575
190.273     70.397    52.322
193.041     70.413    50.635
195.849     70.380    49.248
198.697     70.337    47.771
201.587     70.267    45.795
204.520     70.092    44.478
207.494     69.977    44.070
210.512     69.840    43.865
213.574     69.859    42.770
216.681     69.743    41.708
219.833     69.635    41.289
223.030     69.562    41.073
226.274     69.540    40.490
229.565     69.551    39.437
232.905     69.448    38.760
236.292     69.403    38.743
239.729     69.409    38.399
243.216     69.497    37.752
246.754     69.479    36.269
250.343     69.328    35.173
253.984     69.265    35.274
257.678     69.234    34.671
261.426     69.232    34.016
265.229     69.190    33.085
269.087     69.020    31.979
273.001     68.889    32.797
276.972     68.920    32.900
281.000     68.918    32.188
285.088     68.948    32.255
289.234     68.982    31.827
293.441     69.024    30.854
297.709     68.924    29.539
302.040     68.893    28.961
306.433     68.594    28.501
310.890     68.562    29.447
315.412     68.734    28.672
320.000     68.603    27.839
324.655     68.372    27.532
329.377     68.290    28.902
334.168     68.391    28.840
339.028     68.389    28.967
343.959     68.506    28.207
348.962     68.327    27.188
354.038     68.177    27.591
359.188     68.234    27.820
364.412     68.149    27.062
369.713     68.106    27.724
375.090     68.165    27.230
380.546     68.117    26.779
386.081     68.181    26.277
391.697     68.055    25.049
397.394     68.015    24.862
403.175     67.917    25.167
409.039     67.955    25.098
414.989     68.010    24.978
421.025     68.078    24.647
427.149     68.122    24.219
433.362     68.156    23.658
439.665     68.251    23.363
446.060     68.301    22.679
452.548     68.364    22.150
459.131     68.448    21.726
465.809     68.525    21.253
472.584     68.600    20.785
479.458     68.656    20.339
486.432     68.723    19.803
493.507     68.788    19.311
500.686     68.847    18.829
507.968     68.900    18.328
515.357     68.945    17.840
522.853     68.985    17.303
530.458     69.034    16.760
538.174     69.068    16.214
546.002     69.110    15.643
553.943     69.150    15.074
562.001     69.188    14.483
570.175     69.220    13.807
578.469     69.265    13.143
586.883     69.286    12.449
595.419     69.316    11.716
604.080     69.331    10.911
612.866     69.350    10.108
621.780     69.355     9.280
630.824     69.339     8.408
640.000     69.314     7.573
649.309     69.275     6.700
658.753     69.228     5.885
668.335     69.150     5.089
678.056     69.071     4.361
687.919     68.978     3.762
697.925     68.867     3.248
708.077     68.761     2.878
718.376     68.651     2.710
728.825     68.538     2.638
739.426     68.447     2.760
750.181     68.365     3.009
761.093     68.308     3.367
772.163     68.274     3.777
783.394     68.273     4.180
794.789     68.287     4.581
806.349     68.326     4.792
818.078     68.382     4.897
829.977     68.450     4.858
842.050     68.516     4.691
854.298     68.564     4.320
866.724     68.599     3.876
879.330     68.624     3.316
892.120     68.624     2.802
905.097     68.592     2.388
918.262     68.543     1.996
931.618     68.484     1.726
945.169     68.423     1.692
958.917     68.358     1.806
972.864     68.321     2.117
987.015     68.306     2.508
1001.37     68.325     3.023
1015.94     68.363     3.535
1030.71     68.434     3.864
1045.71     68.521     4.032
1060.92     68.631     4.029
1076.35     68.729     3.863
1092.00     68.818     3.544
1107.89     68.885     3.170
1124.00     68.929     2.716
1140.35     68.957     2.323
1156.94     68.968     2.032
1173.77     68.986     1.868
1190.84     69.005     1.914
1208.16     69.051     2.065
1225.73     69.125     2.308
1243.56     69.241     2.542
1261.65     69.395     2.691
1280.00     69.581     2.626
1298.62     69.795     2.255
1317.51     70.031     1.601
1336.67     70.256     0.596
1356.11     70.464    -0.746
1375.84     70.642    -2.392
1395.85     70.775    -4.261
1416.15     70.853    -6.198
1436.75     70.872    -8.112
1457.65     70.843    -9.825
1478.85     70.780   -11.198
1500.36     70.711   -12.129
1522.19     70.684   -12.645
1544.33     70.730   -12.868
1566.79     70.869   -13.157
1589.58     71.098   -13.851
1612.70     71.364   -15.256
1636.16     71.619   -17.442
1659.95     71.799   -20.319
1684.10     71.873   -23.572
1708.60     71.821   -26.809
1733.45     71.661   -29.558
1758.66     71.453   -31.481
1784.24     71.289   -32.509
1810.19     71.272   -32.971
1836.52     71.442   -33.651
1863.24     71.749   -35.430
1890.34     72.084   -38.682
1917.83     72.321   -43.358
1945.73     72.369   -49.019
1974.03     72.177   -55.105
2002.74     71.742   -60.893
2031.87     71.104   -65.722
2061.43     70.355   -69.065
2091.41     69.626   -70.890
2121.83     69.038   -71.763
2152.69     68.610   -72.711
2184.01     68.230   -74.402
2215.77     67.746   -76.757
2248.00     67.056   -78.980
2280.70     66.184   -79.867
2313.87     65.274   -78.326
2347.53     64.612   -74.356
2381.68     64.433   -69.688
2416.32     64.665   -66.462
2451.46     65.012   -65.786
2487.12     65.263   -67.045
2523.30     65.295   -69.105
2560.00     65.137   -70.776
2597.24     64.946   -71.296
2635.01     64.892   -70.864
2673.34     65.091   -70.800
2712.23     65.418   -72.482
2751.68     65.627   -76.027
2791.70     65.558   -80.221
2832.31     65.239   -83.520
2873.50     64.915   -84.935
2915.30     64.839   -85.498
2957.70     64.979   -87.281
3000.72     65.034   -90.878
3044.37     64.805   -94.667
3088.65     64.407   -96.636
3133.58     64.241   -96.780
3179.16     64.452   -97.534
3225.40     64.721  -100.864
3272.31     64.703  -105.534
3319.91     64.398  -109.309
3368.20     64.089  -111.256
3417.19     63.961  -112.465
3466.89     63.933  -114.007
3517.32     63.916  -115.456
3568.48     63.998  -116.936
3620.39     64.111  -119.196
3673.05     64.027  -121.507
3726.47     63.851  -121.610
3780.67     64.066  -119.737
3835.67     64.697  -119.358
3891.46     65.255  -120.500
3948.06     65.860  -119.900
4005.49     67.163  -119.315
4063.75     68.933  -124.323
4122.86     70.323  -135.128
4182.82     70.984  -148.310
4243.66     70.976  -161.137
4305.39     70.464  -171.901
4368.01     69.674  -179.551
4431.55     68.946   175.937
4496.01     68.444   172.415
4561.40     67.908   168.954
4627.75     67.318   167.573
4695.06     67.116   167.517
4763.35     67.096   165.316
4832.64     66.763   162.635
4902.93     66.397   161.995
4974.24     66.174   161.400
5046.60     65.822   161.330
5120.00     65.636   163.498
5194.47     65.803   165.277
5270.03     66.075   166.092
5346.68     66.385   165.636
5424.45     66.491   164.959
5503.35     66.774   165.706
5583.40     67.215   163.574
5664.61     67.049   161.650
5747.01     67.247   163.861
5830.60     67.896   161.492
5915.41     67.786   157.856
6001.45     67.735   157.680
6088.74     67.769   155.591
6177.30     67.401   155.172
6267.15     67.360   156.904
6358.31     67.396   157.150
6450.80     67.142   158.454
6544.62     67.193   163.850
6639.82     68.091   166.834
6736.40     68.721   165.988
6834.38     69.334   165.015
6933.79     69.622   161.983
7034.64     69.782   161.597
7136.96     70.085   159.402
7240.77     70.024   158.607
7346.09     70.257   158.266
7452.94     70.301   157.340
7561.35     70.433   157.641
7671.33     70.691   157.114
7782.91     70.742   156.135
7896.12     70.970   156.409
8010.97     70.986   154.537
8127.49     71.111   155.741
8245.71     71.184   153.903
8365.65     71.266   155.438
8487.33     71.424   154.062
8610.78     71.546   154.527
8736.03     71.590   153.755
8863.09     71.748   153.682
8992.01     71.747   153.654
9122.80     71.921   152.943
9255.50     71.897   153.236
9390.12     72.084   152.416
9526.70     72.020   152.139
9665.27     72.151   151.185
9805.86     71.911   151.033
9948.49     71.968   150.370
10093.2     71.734   151.580
10240.0     71.772   151.083
10388.9     71.735   151.851
10540.1     71.632   150.776
10693.4     71.317   150.587
10848.9     70.840   151.193
11006.7     70.382   154.887
11166.8     70.174   158.632
11329.2     70.295   164.024
11494.0     70.413   167.596
11661.2     70.985   170.898
11830.8     71.456   174.475
12002.9     72.023   174.187
12177.5     72.754   173.788
12354.6     73.008   172.141
12534.3     73.021   168.413
12716.6     72.940   167.480
12901.6     72.747   168.783
13089.2     72.720   168.194
13279.6     72.693   166.889
13472.8     72.448   167.429
13668.8     72.167   168.524
13867.6     72.033   169.205
14069.3     72.016   170.299
14273.9     71.935   171.089
14481.5     71.646   170.552
14692.2     71.252   171.158
14905.9     71.042   173.274
15122.7     70.779   175.086
15342.7     70.403   176.789
15565.8     70.085   178.191
15792.2     69.669   179.642
16021.9     69.165  -176.969
16255.0     68.743  -172.588
16491.4     68.235  -168.503
16731.3     67.546  -162.450
16974.7     67.128  -151.661
17221.6     67.927  -139.756
17472.1     69.298  -134.578
17726.2     70.234  -133.807
17984.0     70.833  -132.933
18245.6     71.431  -132.478
18511.0     71.981  -132.821
18780.2     72.474  -134.701
19053.4     72.639  -137.553
19330.5     72.605  -139.558
19611.7     72.468  -141.630
19897.0     72.151  -142.949
20186.4     71.770  -143.715
20480.0     71.243  -143.870
20777.9     70.564  -141.584
21080.1     70.505  -137.096
21386.7     70.616  -136.094
21697.8     70.587  -136.438
22013.4     70.341  -136.721
22333.6     70.086  -136.956
22658.4     69.734  -137.260
22988.0     69.322  -137.569
23322.4     68.801  -137.729
23661.6     68.267  -137.749
24005.8     67.628  -137.893
24355.0     66.807  -137.577
24709.2     65.986  -135.714
25068.6     65.257  -133.864
25433.2     64.510  -131.769
25803.2     63.773  -129.377
26178.5     63.111  -127.493
26559.3     62.366  -125.526
26945.6     61.615  -123.963
27337.5     60.727  -122.219
27735.2     59.855  -120.223
28138.6     58.871  -118.703
28547.9     57.814  -116.211
28963.1     56.724  -114.231
29384.4     55.574  -112.038
29811.8     54.229  -110.027
30245.4     52.621  -107.677
30685.3     50.883  -102.511
31131.7     49.489   -94.578
31584.5     48.774   -89.279
32043.9     47.722   -91.862
32510.0     45.499   -94.019
32982.8     42.620   -94.348
33462.6     39.469   -95.282
33949.3     35.395   -96.090
34443.1     31.378  -101.790
34944.1     28.602  -136.045
35452.4     30.999  -177.121
35968.0     35.101   162.232
36491.2     37.853   153.974
37022.0     39.630   151.533
37560.5     41.130   149.432
38106.8     42.377   148.448
38661.1     43.189   146.562
39223.4     43.580   144.586
39793.9     43.464   142.906
