Freq[Hz]     dBSPL  Phase[Deg]
5.00000    -28.887   103.932
5.07273    -25.470    98.438
5.14651    -22.756    92.963
5.22137    -22.003    87.544
5.29732    -21.250    82.125
5.37437    -20.497    76.706
5.45254    -19.744    71.286
5.53185    -19.407    64.842
5.61231    -19.510    57.313
5.69394    -19.613    49.785
5.77676    -19.716    42.256
5.86079    -19.829    34.607
5.94604    -20.531    19.858
6.03252    -21.234     5.110
6.12027    -21.936    -9.638
6.20929    -22.638   -24.386
6.29961    -22.154   -44.080
6.39124    -21.406   -64.871
6.48420    -20.658   -85.661
6.57851    -19.910  -106.452
6.67420    -18.976  -120.010
6.77128    -18.011  -132.394
6.86977    -17.046  -144.778
6.96969    -16.194  -157.092
7.07107    -16.207  -168.869
7.17392    -16.220   179.353
7.27827    -16.232   167.576
7.38413    -16.610   150.072
7.49154    -17.269   128.146
7.60050    -17.929   106.219
7.71105    -18.136    83.786
7.82321    -16.355    59.132
7.93701    -14.574    34.479
8.05245    -12.793     9.825
8.16958    -11.267    -2.766
8.28841     -9.750   -14.906
8.40896     -8.233   -27.047
8.53128     -7.914   -36.583
8.65537     -7.750   -45.784
8.78126     -7.585   -54.984
8.90899    -10.886   -67.584
9.03857    -14.415   -80.407
9.17004    -16.999   -99.025
9.30342    -12.074  -163.766
9.43874     -7.149   131.493
9.57603     -2.724    89.135
9.71532      0.935    80.974
9.85663      4.595    72.814
10.0000      7.080    65.493
10.1455      9.238    58.406
10.2930     11.211    51.438
10.4427     12.668    44.804
10.5946     14.126    38.171
10.7487     15.226    31.911
10.9051     16.254    25.725
11.0637     17.126    19.814
11.2246     17.833    14.193
11.3879     18.485     8.728
11.5535     18.940     3.830
11.7216     19.392    -1.054
11.8921     19.662    -5.099
12.0650     19.931    -9.145
12.2405     20.091   -12.405
12.4186     20.237   -15.564
12.5992     20.321   -18.070
12.7825     20.393   -20.432
12.9684     20.422   -22.227
13.1570     20.442   -23.891
13.3484     20.429   -24.890
13.5426     20.410   -25.780
13.7395     20.400   -25.695
13.9394     20.404   -25.460
14.1421     20.520   -24.363
14.3478     20.708   -23.233
14.5565     21.050   -22.033
14.7683     21.491   -21.502
14.9831     22.009   -21.487
15.2010     22.510   -22.965
15.4221     22.969   -24.942
15.6464     23.254   -27.987
15.8740     23.349   -31.166
16.1049     23.291   -34.453
16.3392     22.850   -36.384
16.5768     22.286   -36.693
16.8179     21.565   -34.719
17.0626     21.163   -27.823
17.3107     21.234   -19.881
17.5625     21.961   -11.311
17.8180     23.264    -7.582
18.0771     24.526    -6.590
18.3401     25.668    -8.168
18.6068     26.445   -11.747
18.8775     26.918   -15.595
19.1521     27.161   -19.151
19.4306     27.205   -21.979
19.7133     27.133   -23.170
20.0000     27.145   -23.122
20.2909     27.303   -22.592
20.5860     27.622   -22.225
20.8855     28.060   -22.729
21.1893     28.476   -24.596
21.4975     28.760   -27.107
21.8102     28.897   -29.610
22.1274     28.914   -31.506
22.4492     28.881   -32.326
22.7758     28.906   -31.909
23.1071     29.098   -30.571
23.4432     29.509   -29.053
23.7841     30.101   -28.112
24.1301     30.771   -27.929
24.4811     31.457   -28.319
24.8372     32.134   -29.037
25.1984     32.798   -29.892
25.5649     33.444   -30.769
25.9368     34.072   -31.571
26.3141     34.680   -32.185
26.6968     35.272   -32.493
27.0851     35.868   -32.436
27.4791     36.483   -32.062
27.8788     37.123   -31.522
28.2843     37.772   -30.953
28.6957     38.414   -30.407
29.1131     39.040   -29.883
29.5365     39.653   -29.407
29.9661     40.257   -29.080
30.4020     40.850   -29.048
30.8442     41.407   -29.440
31.2929     41.915   -30.126
31.7480     42.374   -30.914
32.2098     42.811   -31.624
32.6783     43.273   -32.203
33.1536     43.793   -32.837
33.6359     44.369   -33.731
34.1251     44.972   -34.994
34.6215     45.578   -36.477
35.1250     46.184   -37.970
35.6359     46.814   -39.383
36.1543     47.478   -40.805
36.6802     48.164   -42.340
37.2137     48.851   -43.973
37.7550     49.532   -45.597
38.3041     50.217   -47.181
38.8613     50.911   -48.812
39.4265     51.607   -50.580
40.0000     52.293   -52.467
40.5818     52.977   -54.465
41.1721     53.664   -56.666
41.7710     54.340   -59.125
42.3785     54.981   -61.780
42.9949     55.592   -64.401
43.6203     56.201   -66.910
44.2548     56.829   -69.423
44.8985     57.467   -72.089
45.5515     58.096   -74.892
46.2141     58.717   -77.786
46.8863     59.332   -80.800
47.5683     59.940   -84.000
48.2602     60.532   -87.358
48.9621     61.115   -90.854
49.6743     61.690   -94.523
50.3968     62.245   -98.356
51.1299     62.775  -102.251
51.8736     63.288  -106.142
52.6281     63.785  -110.070
53.3936     64.255  -114.068
54.1702     64.689  -118.103
54.9581     65.090  -122.173
55.7575     65.462  -126.335
56.5685     65.807  -130.617
57.3914     66.130  -135.025
58.2261     66.435  -139.529
59.0730     66.721  -144.009
59.9323     67.000  -148.348
60.8040     67.277  -152.502
61.6884     67.541  -156.405
62.5857     67.791  -160.058
63.4960     68.010  -163.530
64.4196     68.181  -166.860
65.3566     68.312  -170.056
66.3073     68.416  -173.247
67.2717     68.496  -176.507
68.2502     68.570  -179.780
69.2429     68.654   176.964
70.2501     68.751   173.776
71.2719     68.863   170.699
72.3086     68.979   167.685
73.3603     69.078   164.735
74.4274     69.164   161.850
75.5099     69.237   158.889
76.6083     69.289   155.947
77.7226     69.357   153.170
78.8531     69.463   150.463
80.0000     69.594   147.819
81.1636     69.738   145.225
82.3442     69.875   142.651
83.5419     69.998   140.023
84.7570     70.107   137.265
85.9899     70.213   134.368
87.2406     70.327   131.440
88.5096     70.475   128.601
89.7970     70.655   125.772
91.1031     70.826   122.930
92.4282     70.961   120.102
93.7726     71.053   117.306
95.1366     71.118   114.601
96.5204     71.196   112.012
97.9243     71.302   109.486
99.3486     71.430   107.047
100.794     71.564   104.615
102.260     71.677   102.089
103.747     71.767    99.445
105.256     71.849    96.640
106.787     71.935    93.697
108.340     72.022    90.684
109.916     72.077    87.697
111.515     72.110    85.004
113.137     72.151    82.413
114.783     72.198    79.724
116.452     72.243    77.031
118.146     72.291    74.440
119.865     72.333    71.931
121.608     72.357    69.409
123.377     72.357    66.812
125.171     72.354    64.051
126.992     72.355    61.181
128.839     72.363    58.348
130.713     72.363    55.618
132.615     72.340    53.077
134.543     72.297    50.627
136.500     72.255    48.179
138.486     72.207    45.863
140.500     72.129    43.323
142.544     72.035    40.683
144.617     71.951    38.387
146.721     71.878    36.473
148.855     71.844    34.521
151.020     71.792    32.171
153.217     71.690    29.592
155.445     71.626    27.232
157.706     71.581    24.619
160.000     71.353    22.563
162.327     71.163    21.582
164.688     71.087    20.236
167.084     71.072    18.561
169.514     71.098    15.972
171.980     70.864    13.411
174.481     70.598    12.359
177.019     70.477    11.410
179.594     70.438    10.375
182.206     70.430     9.469
184.856     70.432     8.658
187.545     70.404     7.369
190.273     70.401     5.480
193.041     70.421     3.283
195.849     70.387     1.597
198.697     70.318    -0.152
201.587     70.204    -2.517
204.520     69.992    -4.409
207.494     69.870    -5.441
210.512     69.742    -6.135
213.574     69.749    -7.644
216.681     69.617    -9.220
219.833     69.511   -10.229
223.030     69.456   -10.997
226.274     69.455   -12.011
229.565     69.465   -13.366
232.905     69.330   -14.520
236.292     69.279   -15.248
239.729     69.310   -16.200
243.216     69.407   -17.324
246.754     69.382   -19.354
250.343     69.223   -21.184
253.984     69.182   -21.898
257.678     69.185   -23.096
261.426     69.179   -24.376
265.229     69.137   -26.212
269.087     69.005   -28.229
273.001     68.919   -28.115
276.972     68.961   -28.631
281.000     68.952   -30.268
285.088     69.012   -31.197
289.234     69.042   -32.553
293.441     69.109   -34.781
297.709     69.040   -36.940
302.040     68.978   -38.733
306.433     68.715   -40.571
310.890     68.701   -40.939
315.412     68.911   -42.977
320.000     68.775   -44.959
324.655     68.518   -46.534
329.377     68.399   -46.701
334.168     68.484   -48.283
339.028     68.428   -49.862
343.959     68.524   -52.239
348.962     68.293   -54.799
354.038     68.065   -55.901
359.188     68.045   -57.432
364.412     67.872   -59.722
369.713     67.722   -60.688
375.090     67.664   -62.655
380.546     67.489   -64.604
386.081     67.410   -66.562
391.697     67.156   -68.970
397.394     66.897   -70.479
403.175     66.677   -71.643
409.039     66.564   -72.580
414.989     66.443   -73.812
421.025     66.352   -75.141
427.149     66.265   -76.506
433.362     66.150   -77.816
439.665     66.125   -79.115
446.060     66.076   -80.349
452.548     66.008   -81.590
459.131     65.978   -82.750
465.809     65.966   -84.095
472.584     65.959   -85.360
479.458     65.947   -86.505
486.432     65.936   -87.974
493.507     65.925   -89.308
500.686     65.919   -90.893
507.968     65.920   -92.450
515.357     65.893   -94.008
522.853     65.886   -95.635
530.458     65.843   -97.344
538.174     65.813   -99.166
546.002     65.781  -100.815
553.943     65.700  -102.690
562.001     65.659  -104.616
570.175     65.599  -106.393
578.469     65.507  -108.353
586.883     65.445  -110.206
595.419     65.351  -111.952
604.080     65.261  -113.696
612.866     65.140  -115.558
621.780     65.047  -117.171
630.824     64.922  -119.130
640.000     64.823  -120.702
649.309     64.701  -122.414
658.753     64.589  -124.042
668.335     64.498  -125.672
678.056     64.379  -127.145
687.919     64.259  -128.820
697.925     64.177  -130.388
708.077     64.077  -131.837
718.376     63.969  -133.355
728.825     63.890  -134.843
739.426     63.791  -136.251
750.181     63.696  -137.816
761.093     63.621  -139.208
772.163     63.534  -140.609
783.394     63.464  -142.064
794.789     63.403  -143.384
806.349     63.332  -144.827
818.078     63.279  -146.238
829.977     63.256  -147.697
842.050     63.232  -148.951
854.298     63.214  -150.457
866.724     63.200  -151.873
879.330     63.201  -153.448
892.120     63.201  -155.137
905.097     63.231  -156.774
918.262     63.240  -158.682
931.618     63.258  -160.549
945.169     63.290  -162.466
958.917     63.298  -164.402
972.864     63.307  -166.420
987.015     63.316  -168.352
1001.37     63.321  -170.427
1015.94     63.327  -172.428
1030.71     63.348  -174.375
1045.71     63.379  -176.332
1060.92     63.420  -178.303
1076.35     63.488   179.739
1092.00     63.568   177.726
1107.89     63.695   175.587
1124.00     63.821   173.267
1140.35     63.995   170.812
1156.94     64.184   168.165
1173.77     64.376   165.147
1190.84     64.583   161.919
1208.16     64.793   158.234
1225.73     65.011   154.208
1243.56     65.205   149.717
1261.65     65.384   144.796
1280.00     65.534   139.620
1298.62     65.626   134.060
1317.51     65.651   128.115
1336.67     65.626   121.856
1356.11     65.516   115.552
1375.84     65.306   109.022
1395.85     65.026   102.569
1416.15     64.651    96.380
1436.75     64.200    90.551
1457.65     63.718    85.178
1478.85     63.195    80.416
1500.36     62.712    76.103
1522.19     62.291    72.180
1544.33     61.960    68.215
1566.79     61.715    63.857
1589.58     61.494    58.773
1612.70     61.280    52.790
1636.16     60.964    46.117
1659.95     60.517    38.697
1684.10     59.913    30.942
1708.60     59.118    23.500
1733.45     58.171    16.644
1758.66     57.102    10.915
1784.24     56.061     6.721
1810.19     55.199     3.955
1836.52     54.592     1.398
1863.24     54.346    -1.818
1890.34     54.201    -7.216
1917.83     54.140   -13.940
1945.73     53.958   -22.212
1974.03     53.726   -31.288
2002.74     53.441   -40.463
2031.87     53.331   -49.059
2061.43     53.329   -58.239
2091.41     53.660   -67.385
2121.83     54.078   -78.304
2152.69     54.494   -90.552
2184.01     54.834  -104.019
2215.77     54.837  -118.076
2248.00     54.467  -131.996
2280.70     53.595  -144.008
2313.87     52.178  -152.026
2347.53     50.497  -151.569
2381.68     49.780  -141.521
2416.32     51.041  -132.151
2451.46     53.052  -131.561
2487.12     54.639  -137.515
2523.30     55.585  -145.436
2560.00     56.035  -152.191
2597.24     56.281  -156.368
2635.01     56.741  -158.341
2673.34     57.507  -160.915
2712.23     58.346  -165.442
2751.68     58.933  -171.257
2791.70     59.211  -176.514
2832.31     59.429  -179.723
2873.50     59.932   178.367
2915.30     60.770   174.947
2957.70     61.545   168.680
3000.72     61.906   160.694
3044.37     61.771   153.969
3088.65     61.455   150.648
3133.58     61.507   150.444
3179.16     62.159   149.240
3225.40     62.916   144.615
3272.31     63.339   137.946
3319.91     63.389   131.701
3368.20     63.312   127.195
3417.19     63.386   123.723
3466.89     63.583   119.680
3517.32     63.711   114.573
3568.48     63.669   109.536
3620.39     63.502   105.439
3673.05     63.412   102.298
3726.47     63.506    99.077
3780.67     63.647    94.243
3835.67     63.531    87.883
3891.46     63.006    82.047
3948.06     62.257    78.928
4005.49     61.689    77.931
4063.75     61.192    77.176
4122.86     60.608    78.576
4182.82     60.622    83.464
4243.66     61.562    84.762
4305.39     62.302    79.542
4368.01     62.272    73.197
4431.55     61.984    69.646
4496.01     61.858    66.356
4561.40     61.482    61.950
4627.75     60.758    59.866
4695.06     60.225    60.453
4763.35     59.844    60.987
4832.64     59.409    63.304
4902.93     59.483    67.586
4974.24     59.972    69.590
5046.60     60.488    69.581
5120.00     60.894    68.341
5194.47     61.221    67.082
5270.03     61.668    65.514
5346.68     62.023    62.025
5424.45     62.134    59.367
5503.35     62.565    57.045
5583.40     62.836    50.903
5664.61     62.459    46.234
5747.01     62.352    44.233
5830.60     62.326    39.270
5915.41     61.631    34.620
6001.45     60.795    34.063
6088.74     60.292    35.718
6177.30     59.961    38.161
6267.15     60.017    42.079
6358.31     60.641    42.839
6450.80     60.692    41.184
6544.62     61.076    43.393
6639.82     61.850    39.714
6736.40     61.842    35.411
6834.38     61.900    32.213
6933.79     61.583    28.929
7034.64     61.378    28.133
7136.96     61.179    26.912
7240.77     61.064    26.837
7346.09     61.039    26.955
7452.94     61.191    25.823
7561.35     61.028    25.835
7671.33     61.432    25.361
7782.91     61.301    23.473
7896.12     61.694    22.443
8010.97     61.433    18.996
8127.49     61.483    19.613
8245.71     61.430    18.352
8365.65     61.599    18.907
8487.33     61.932    17.911
8610.78     62.310    16.137
8736.03     62.822    12.434
8863.09     62.901     6.555
8992.01     62.697     1.396
9122.80     62.392    -1.918
9255.50     62.013    -5.764
9390.12     61.798    -8.776
9526.70     61.080   -12.381
9665.27     60.531   -14.843
9805.86     59.601   -13.708
9948.49     59.360   -12.419
10093.2     59.203   -11.094
10240.0     59.276   -13.562
10388.9     58.513   -15.906
10540.1     57.546   -14.676
10693.4     57.151    -6.865
10848.9     57.861    -1.390
11006.7     58.822    -2.427
11166.8     59.259    -8.354
11329.2     59.151   -11.994
11494.0     58.720   -15.185
11661.2     58.668   -17.677
11830.8     58.248   -19.356
12002.9     58.012   -21.501
12177.5     58.278   -23.613
12354.6     57.999   -30.456
12534.3     56.837   -39.186
12716.6     55.281   -41.437
12901.6     53.863   -37.392
13089.2     53.099   -35.528
13279.6     52.209   -35.941
13472.8     50.518   -33.191
13668.8     48.655   -19.305
13867.6     49.547    -3.370
14069.3     50.787     1.122
14273.9     51.525     3.194
14481.5     52.164     3.387
14692.2     52.729     1.828
14905.9     53.639    -0.251
15122.7     54.108    -7.022
15342.7     53.686   -16.563
15565.8     52.552   -22.866
15792.2     51.389   -24.456
16021.9     50.603   -24.107
16255.0     49.106   -23.635
16491.4     47.538   -15.200
16731.3     47.993    -0.945
16974.7     49.873    -0.401
17221.6     50.013   -10.460
17472.1     49.134   -10.999
17726.2     49.064    -9.133
17984.0     49.353   -10.598
18245.6     49.002   -15.722
18511.0     48.235   -16.773
18780.2     48.627   -17.912
19053.4     48.287   -26.451
19330.5     47.107   -31.027
19611.7     46.328   -35.025
19897.0     44.825   -43.400
20186.4     42.230   -47.755
20480.0     38.266   -47.129
20777.9     33.531   -19.326
21080.1     35.292    17.389
21386.7     38.321    30.097
21697.8     40.713    28.591
22013.4     41.996    23.176
22333.6     42.562    15.070
22658.4     42.241     5.401
22988.0     41.093    -4.146
23322.4     39.800    -4.283
23661.6     39.032    -7.119
24005.8     37.784   177.843
24355.0     35.813   -10.533
24709.2     34.943    -4.250
25068.6     34.412    -4.442
25433.2     33.328    -0.272
25803.2     32.945    -6.192
26178.5     32.037   -12.147
26559.3     31.124   -17.769
26945.6     29.226   -18.298
27337.5     28.879   -27.460
27735.2     26.959   -46.331
28138.6     25.783   -61.919
28547.9     25.807   -75.526
28963.1     25.602   134.274
29384.4     26.080  -146.018
29811.8     27.004  -150.895
30245.4     27.275  -160.280
30685.3     27.486  -175.017
31131.7     25.958   156.580
31584.5     22.753  -167.406
32043.9     20.584    55.141
32510.0     24.665  -154.728
32982.8     26.238  -138.607
33462.6     26.843  -141.110
33949.3     27.813  -142.854
34443.1     28.641  -144.997
34944.1     28.842  -154.788
35452.4     28.124  -162.207
35968.0     27.138  -163.415
36491.2     26.875   -18.388
37022.0     25.461   -81.676
37560.5     26.002   -55.318
38106.8     25.433    -6.924
38661.1     25.110   -14.356
39223.4     24.151   -32.696
39793.9     24.792  -107.728
