Freq[Hz]     dBSPL  Phase[Deg]
5.00000    -29.710   104.432
5.07273    -26.293    99.072
5.14651    -23.580    93.733
5.22137    -22.831    88.455
5.29732    -22.082    83.177
5.37437    -21.333    77.899
5.45254    -20.584    72.621
5.53185    -20.254    66.318
5.61231    -20.366    58.929
5.69394    -20.478    51.540
5.77676    -20.591    44.151
5.86079    -20.713    36.641
5.94604    -21.430    22.021
6.03252    -22.147     7.401
6.12027    -22.864    -7.219
6.20929    -23.581   -21.839
6.29961    -23.115   -41.422
6.39124    -22.387   -62.106
6.48420    -21.659   -82.790
6.57851    -20.931  -103.474
6.67420    -20.019  -116.952
6.77128    -19.078  -129.259
6.86977    -18.136  -141.567
6.96969    -17.309  -153.808
7.07107    -17.348  -165.548
7.17392    -17.387  -177.287
7.27827    -17.426   170.974
7.38413    -17.831   153.486
7.49154    -18.517   131.555
7.60050    -19.204   109.624
7.71105    -19.439    87.179
7.82321    -17.685    62.477
7.93701    -15.930    37.775
8.05245    -14.176    13.073
8.16958    -12.675     0.392
8.28841    -11.183   -11.839
8.40896     -9.691   -24.070
8.53128     -9.393   -33.731
8.65537     -9.248   -43.060
8.78126     -9.104   -52.390
8.90899    -12.420   -65.147
9.03857    -15.963   -78.128
9.17004    -18.562   -96.906
9.30342    -13.645  -161.826
9.43874     -8.729   133.255
9.57603     -4.310    90.715
9.71532     -0.651    82.368
9.85663      3.008    74.022
10.0000      5.498    66.518
10.1455      7.662    59.250
10.2930      9.644    52.106
10.4427     11.114    45.308
10.5946     12.584    38.511
10.7487     13.703    32.111
10.9051     14.752    25.790
11.0637     15.646    19.764
11.2246     16.377    14.047
11.3879     17.054     8.497
11.5535     17.537     3.549
11.7216     18.017    -1.383
11.8921     18.315    -5.426
12.0650     18.614    -9.469
12.2405     18.802   -12.681
12.4186     18.975   -15.785
12.5992     19.086   -18.194
12.7825     19.183   -20.449
12.9684     19.233   -22.102
13.1570     19.273   -23.615
13.3484     19.274   -24.432
13.5426     19.269   -25.135
13.7395     19.265   -24.841
13.9394     19.274   -24.394
14.1421     19.385   -23.079
14.3478     19.565   -21.733
14.5565     19.894   -20.323
14.7683     20.316   -19.596
14.9831     20.810   -19.397
15.2010     21.280   -20.729
15.4221     21.706   -22.576
15.6464     21.952   -25.540
15.8740     22.006   -28.679
16.1049     21.906   -31.957
16.3392     21.419   -33.956
16.5768     20.812   -34.369
16.8179     20.049   -32.550
17.0626     19.608   -25.881
17.3107     19.644   -18.203
17.5625     20.341    -9.943
17.8180     21.623    -6.581
18.0771     22.872    -5.981
18.3401     24.008    -7.976
18.6068     24.792   -11.994
18.8775     25.283   -16.282
19.1521     25.554   -20.271
19.4306     25.635   -23.519
19.7133     25.613   -25.096
20.0000     25.684   -25.388
20.2909     25.910   -25.152
20.5860     26.304   -25.024
20.8855     26.822   -25.704
21.1893     27.323   -27.664
21.4975     27.694   -30.193
21.8102     27.919   -32.640
22.1274     28.023   -34.409
22.4492     28.074   -35.030
22.7758     28.179   -34.346
23.1071     28.446   -32.679
23.4432     28.924   -30.776
23.7841     29.577   -29.399
24.1301     30.297   -28.742
24.4811     31.026   -28.629
24.8372     31.737   -28.823
25.1984     32.424   -29.145
25.5649     33.085   -29.485
25.9368     33.718   -29.756
26.3141     34.324   -29.849
26.6968     34.907   -29.652
27.0851     35.487   -29.113
27.4791     36.078   -28.281
27.8788     36.689   -27.312
28.2843     37.303   -26.346
28.6957     37.905   -25.436
29.1131     38.488   -24.584
29.5365     39.053   -23.819
29.9661     39.607   -23.245
30.4020     40.146   -23.013
30.8442     40.647   -23.263
31.2929     41.098   -23.861
31.7480     41.501   -24.621
32.2098     41.883   -25.361
32.6783     42.296   -26.035
33.1536     42.774   -26.818
33.6359     43.313   -27.906
34.1251     43.893   -29.398
34.6215     44.484   -31.128
35.1250     45.086   -32.869
35.6359     45.725   -34.508
36.1543     46.407   -36.119
36.6802     47.119   -37.790
37.2137     47.837   -39.494
37.7550     48.551   -41.123
38.3041     49.268   -42.639
38.8613     49.990   -44.147
39.4265     50.705   -45.745
40.0000     51.404   -47.438
40.5818     52.091   -49.240
41.1721     52.772   -51.265
41.7710     53.436   -53.587
42.3785     54.062   -56.158
42.9949     54.659   -58.750
43.6203     55.257   -61.282
44.2548     55.882   -63.857
44.8985     56.523   -66.604
45.5515     57.166   -69.483
46.2141     57.808   -72.427
46.8863     58.450   -75.449
47.5683     59.088   -78.600
48.2602     59.711   -81.855
48.9621     60.321   -85.200
49.6743     60.918   -88.685
50.3968     61.489   -92.316
51.1299     62.029   -96.009
51.8736     62.549   -99.708
52.6281     63.050  -103.460
53.3936     63.524  -107.297
54.1702     63.960  -111.180
54.9581     64.365  -115.099
55.7575     64.739  -119.100
56.5685     65.085  -123.214
57.3914     65.406  -127.453
58.2261     65.703  -131.799
59.0730     65.975  -136.158
59.9323     66.238  -140.430
60.8040     66.502  -144.583
61.6884     66.759  -148.551
62.5857     67.014  -152.310
63.4960     67.253  -155.889
64.4196     67.460  -159.279
65.3566     67.635  -162.434
66.3073     67.784  -165.465
67.2717     67.901  -168.448
68.2502     67.994  -171.381
69.2429     68.075  -174.307
70.2501     68.152  -177.267
71.2719     68.240   179.728
72.3086     68.342   176.623
73.3603     68.451   173.487
74.4274     68.579   170.437
75.5099     68.718   167.459
76.6083     68.844   164.724
77.7226     68.969   162.363
78.8531     69.103   160.170
80.0000     69.229   157.988
81.1636     69.349   155.683
82.3442     69.467   153.203
83.5419     69.598   150.561
84.7570     69.745   147.846
85.9899     69.903   145.185
87.2406     70.058   142.712
88.5096     70.212   140.440
89.7970     70.360   138.106
91.1031     70.480   135.540
92.4282     70.571   132.750
93.7726     70.646   129.869
95.1366     70.720   127.116
96.5204     70.815   124.601
97.9243     70.929   122.224
99.3486     71.052   119.891
100.794     71.181   117.446
102.260     71.310   114.832
103.747     71.438   112.154
105.256     71.569   109.473
106.787     71.694   106.796
108.340     71.801   104.084
109.916     71.864   101.343
111.515     71.905    98.839
113.137     71.958    96.439
114.783     72.012    93.970
116.452     72.056    91.471
118.146     72.099    88.971
119.865     72.151    86.470
121.608     72.205    83.984
123.377     72.243    81.560
125.171     72.265    79.097
126.992     72.270    76.530
128.839     72.270    73.895
130.713     72.267    71.255
132.615     72.253    68.771
134.543     72.226    66.403
136.500     72.202    64.055
138.486     72.174    61.834
140.500     72.123    59.427
142.544     72.058    57.006
144.617     71.990    54.951
146.721     71.922    53.235
148.855     71.896    51.421
151.020     71.863    49.209
153.217     71.782    46.870
155.445     71.721    44.804
157.706     71.657    42.370
160.000     71.419    40.281
162.327     71.256    39.212
164.688     71.229    37.992
167.084     71.248    36.717
169.514     71.257    34.530
171.980     70.996    32.048
174.481     70.742    30.960
177.019     70.651    30.203
179.594     70.604    29.523
182.206     70.552    28.652
184.856     70.563    27.552
187.545     70.602    26.264
190.273     70.643    24.822
193.041     70.642    22.994
195.849     70.593    21.330
198.697     70.553    19.624
201.587     70.466    17.590
204.520     70.241    16.055
207.494     70.097    15.168
210.512     69.970    14.551
213.574     69.990    13.241
216.681     69.858    11.941
219.833     69.736    11.210
223.030     69.653    10.633
226.274     69.637     9.713
229.565     69.645     8.518
232.905     69.496     7.584
236.292     69.426     6.986
239.729     69.454     6.182
243.216     69.539     5.292
246.754     69.500     3.409
250.343     69.349     1.822
253.984     69.288     1.564
257.678     69.240     0.567
261.426     69.230    -0.621
265.229     69.190    -1.993
269.087     68.998    -3.558
273.001     68.859    -3.420
276.972     68.921    -3.798
281.000     68.897    -4.824
285.088     68.901    -5.495
289.234     68.944    -6.503
293.441     68.970    -8.040
297.709     68.846    -9.873
302.040     68.764   -11.323
306.433     68.507   -12.686
310.890     68.459   -12.079
315.412     68.572   -13.664
320.000     68.415   -15.333
324.655     68.154   -16.457
329.377     68.048   -15.905
334.168     68.113   -16.653
339.028     68.040   -17.446
343.959     68.123   -18.912
348.962     67.829   -20.838
354.038     67.656   -21.449
359.188     67.630   -21.914
364.412     67.479   -23.520
369.713     67.335   -23.582
375.090     67.307   -24.968
380.546     67.187   -26.058
386.081     67.136   -27.276
391.697     66.913   -29.055
397.394     66.749   -30.165
403.175     66.590   -30.355
409.039     66.492   -30.958
414.989     66.461   -31.877
421.025     66.421   -32.618
427.149     66.372   -33.850
433.362     66.322   -34.764
439.665     66.288   -35.779
446.060     66.262   -37.188
452.548     66.231   -38.205
459.131     66.200   -39.367
465.809     66.205   -40.355
472.584     66.115   -41.516
479.458     66.086   -42.611
486.432     66.017   -43.763
493.507     65.915   -45.038
500.686     65.841   -46.111
507.968     65.722   -47.406
515.357     65.617   -48.538
522.853     65.488   -49.479
530.458     65.325   -50.556
538.174     65.177   -51.477
546.002     65.029   -52.334
553.943     64.854   -52.995
562.001     64.692   -53.612
570.175     64.524   -54.095
578.469     64.369   -54.580
586.883     64.217   -54.782
595.419     64.072   -54.974
604.080     63.958   -55.313
612.866     63.853   -55.433
621.780     63.784   -55.444
630.824     63.680   -55.716
640.000     63.622   -56.061
649.309     63.593   -56.295
658.753     63.518   -56.669
668.335     63.469   -57.230
678.056     63.417   -57.732
687.919     63.348   -58.285
697.925     63.255   -58.882
708.077     63.156   -59.415
718.376     63.033   -59.870
728.825     62.897   -60.433
739.426     62.788   -60.586
750.181     62.643   -60.618
761.093     62.500   -60.348
772.163     62.369   -60.033
783.394     62.294   -59.581
794.789     62.261   -58.891
806.349     62.238   -58.012
818.078     62.296   -57.386
829.977     62.398   -56.645
842.050     62.524   -56.163
854.298     62.691   -55.937
866.724     62.883   -56.050
879.330     63.055   -56.472
892.120     63.285   -57.121
905.097     63.472   -57.911
918.262     63.643   -59.126
931.618     63.813   -60.443
945.169     63.952   -61.983
958.917     64.071   -63.654
972.864     64.179   -65.475
987.015     64.248   -67.360
1001.37     64.277   -69.269
1015.94     64.262   -71.332
1030.71     64.218   -73.399
1045.71     64.121   -75.325
1060.92     63.968   -77.130
1076.35     63.772   -78.531
1092.00     63.542   -79.407
1107.89     63.295   -79.732
1124.00     63.117   -79.134
1140.35     63.003   -77.884
1156.94     63.083   -76.067
1173.77     63.341   -74.270
1190.84     63.784   -73.159
1208.16     64.361   -73.151
1225.73     64.982   -74.480
1243.56     65.613   -77.134
1261.65     66.163   -80.940
1280.00     66.597   -85.544
1298.62     66.876   -90.796
1317.51     67.022   -96.409
1336.67     66.996  -102.133
1356.11     66.810  -107.542
1375.84     66.482  -112.385
1395.85     66.033  -116.354
1416.15     65.527  -119.028
1436.75     65.066  -120.432
1457.65     64.738  -120.700
1478.85     64.609  -120.478
1500.36     64.709  -120.630
1522.19     64.941  -121.609
1544.33     65.202  -123.915
1566.79     65.426  -127.232
1589.58     65.544  -131.129
1612.70     65.545  -135.205
1636.16     65.437  -139.119
1659.95     65.294  -142.579
1684.10     65.130  -145.585
1708.60     65.035  -148.266
1733.45     65.002  -151.050
1758.66     65.040  -154.244
1784.24     65.085  -158.104
1810.19     65.091  -162.637
1836.52     65.012  -167.789
1863.24     64.800  -173.405
1890.34     64.463  -179.137
1917.83     63.956   175.275
1945.73     63.289   170.122
1974.03     62.417   165.846
2002.74     61.409   163.221
2031.87     60.397   162.684
2061.43     59.555   164.912
2091.41     59.147   168.293
2121.83     59.202   170.488
2152.69     59.413   170.075
2184.01     59.426   167.383
2215.77     59.059   163.851
2248.00     58.315   162.161
2280.70     57.446   164.452
2313.87     57.111   170.987
2347.53     57.656   177.231
2381.68     58.714   178.757
2416.32     59.659   175.804
2451.46     60.200   170.764
2487.12     60.346   165.622
2523.30     60.254   161.611
2560.00     60.145   159.037
2597.24     60.157   157.224
2635.01     60.265   155.257
2673.34     60.410   152.760
2712.23     60.552   149.904
2751.68     60.673   146.652
2791.70     60.746   143.131
2832.31     60.736   139.360
2873.50     60.630   136.234
2915.30     60.550   133.791
2957.70     60.613   131.265
3000.72     60.755   127.687
3044.37     60.711   122.992
3088.65     60.376   118.691
3133.58     59.907   116.544
3179.16     59.697   116.384
3225.40     59.819   115.641
3272.31     59.964   112.566
3319.91     59.834   109.000
3368.20     59.547   107.352
3417.19     59.549   107.289
3466.89     59.891   105.902
3517.32     60.179   102.113
3568.48     60.133    97.409
3620.39     59.873    94.011
3673.05     59.677    92.177
3726.47     59.685    90.616
3780.67     59.787    88.230
3835.67     59.850    85.027
3891.46     59.841    81.544
3948.06     59.790    78.168
4005.49     59.756    74.349
4063.75     59.632    69.502
4122.86     59.204    64.231
4182.82     58.395    60.201
4243.66     57.388    59.624
4305.39     56.720    63.376
4368.01     56.801    67.648
4431.55     57.272    67.980
4496.01     57.378    66.088
4561.40     57.356    66.172
4627.75     57.750    66.392
4695.06     58.209    63.248
4763.35     58.249    59.069
4832.64     58.164    56.117
4902.93     58.135    53.098
4974.24     57.968    49.496
5046.60     57.596    45.870
5120.00     56.927    43.866
5194.47     56.366    45.517
5270.03     56.305    46.765
5346.68     56.040    46.787
5424.45     55.891    50.485
5503.35     56.400    52.480
5583.40     56.766    51.742
5664.61     57.151    51.782
5747.01     57.735    50.072
5830.60     58.117    45.826
5915.41     58.028    41.558
6001.45     57.929    40.090
6088.74     58.039    36.620
6177.30     57.511    34.320
6267.15     57.513    36.624
6358.31     57.868    34.466
6450.80     57.881    32.938
6544.62     58.053    30.506
6639.82     57.850    28.517
6736.40     57.937    28.917
6834.38     58.427    27.205
6933.79     58.637    21.537
7034.64     58.287    18.192
7136.96     58.301    15.509
7240.77     57.929    11.841
7346.09     57.602    10.059
7452.94     57.189     8.499
7561.35     56.846     8.735
7671.33     56.918     9.552
7782.91     56.925     6.276
7896.12     56.726     5.493
8010.97     56.362     1.948
8127.49     55.769     4.273
8245.71     55.736     4.966
8365.65     55.712     7.035
8487.33     56.198     7.708
8610.78     56.277     5.419
8736.03     56.770     6.213
8863.09     57.119     1.057
8992.01     57.213    -3.333
9122.80     57.046    -8.470
9255.50     56.489   -12.919
9390.12     56.088   -16.204
9526.70     55.217   -16.832
9665.27     54.826   -18.150
9805.86     54.408   -16.358
9948.49     54.443   -17.155
10093.2     53.926   -19.467
10240.0     53.318   -20.283
10388.9     53.006   -16.177
10540.1     52.994   -15.248
10693.4     53.372   -14.622
10848.9     53.756   -17.770
11006.7     54.068   -22.488
11166.8     53.565   -31.417
11329.2     52.593   -36.244
11494.0     51.417   -41.337
11661.2     50.022   -43.462
11830.8     48.273   -40.951
12002.9     46.652   -37.178
12177.5     45.756   -28.070
12354.6     44.764   -19.934
12534.3     44.572    -9.202
12716.6     44.924    -0.593
12901.6     45.572    10.420
13089.2     47.055    13.144
13279.6     48.267    14.884
13472.8     50.067    11.459
13668.8     50.770    -0.133
13867.6     50.837   -10.693
14069.3     50.442   -22.428
14273.9     49.176   -32.360
14481.5     47.587   -42.235
14692.2     44.789   -52.128
14905.9     39.960   -51.127
15122.7     36.196   -14.788
15342.7     38.626    14.767
15565.8     41.407    19.803
15792.2     43.528    15.008
16021.9     43.825     6.578
16255.0     44.367     3.553
16491.4     45.007    -3.562
16731.3     45.274   -18.380
16974.7     44.000   -35.549
17221.6     40.926   -49.631
17472.1     37.114   -47.774
17726.2     33.504   -34.032
17984.0     31.562   -12.726
18245.6     31.627    14.015
18511.0     34.431    27.670
18780.2     34.992    21.372
19053.4     35.466    27.777
19330.5     36.251    30.312
19611.7     36.456    25.811
19897.0     36.016    27.481
20186.4     36.167    34.087
20480.0     36.456    32.099
20777.9     35.549    28.530
21080.1     34.503    35.516
21386.7     33.917    45.539
21697.8     34.612    52.542
22013.4     35.625    58.970
22333.6     36.960    59.043
22658.4     37.598    52.382
22988.0     37.539    45.344
23322.4     37.763    42.194
23661.6     37.672    32.776
24005.8     36.764    27.811
24355.0     35.745    21.685
24709.2     35.216    18.835
25068.6     34.845    12.228
25433.2     33.578     2.774
25803.2     31.925    -1.836
26178.5     30.122    -8.512
26559.3     29.649   -12.349
26945.6     28.748   -16.330
27337.5     28.333   -36.453
27735.2     26.994   -48.008
28138.6     25.941   -58.773
28547.9     26.837   -74.671
28963.1     26.117   -95.451
29384.4     24.568  -104.198
29811.8     22.504   171.204
30245.4     22.173  -149.448
30685.3     20.355    20.814
31131.7     19.918   -14.324
31584.5     20.451   -34.090
32043.9     18.893   -20.854
32510.0     19.264   177.689
32982.8     18.827   -88.772
33462.6     18.359    24.069
33949.3     18.597  -140.261
34443.1     19.153  -149.900
34944.1     20.378   -76.642
35452.4     19.336   138.204
35968.0     19.841   -34.618
36491.2     19.144    11.906
37022.0     19.717   161.214
37560.5     18.547    48.791
38106.8     17.963  -104.730
38661.1     17.594   -16.827
39223.4     17.910    15.794
39793.9     18.170  -172.031
