Freq[Hz]     dBSPL  Phase[Deg]
Freq[Hz]     dBSPL  Phase[Deg]
5.00000    -14.534   -17.117
5.07273    -14.190   -17.196
5.14651    -13.819   -17.279
5.22137    -13.407   -17.368
5.29732    -12.979   -17.461
5.37437    -12.533   -17.557
5.45254    -12.087   -17.654
5.53185    -11.640   -17.753
5.61231    -11.194   -17.853
5.69394    -10.747   -17.955
5.77676    -10.301   -18.058
5.86079     -9.854   -18.163
5.94604     -9.408   -18.270
6.03252     -8.961   -18.378
6.12027     -8.515   -18.487
6.20929     -8.068   -18.598
6.29961     -7.621   -18.711
6.39124     -7.175   -18.826
6.48420     -6.728   -18.942
6.57851     -6.281   -19.060
6.67420     -5.835   -19.179
6.77128     -5.388   -19.301
6.86977     -4.941   -19.424
6.96969     -4.494   -19.549
7.07107     -4.047   -19.676
7.17392     -3.600   -19.805
7.27827     -3.153   -19.935
7.38413     -2.706   -20.068
7.49154     -2.259   -20.202
7.60050     -1.812   -20.339
7.71105     -1.365   -20.478
7.82321     -0.918   -20.618
7.93701     -0.471   -20.761
8.05245     -0.024   -20.906
8.16958      0.423   -21.053
8.28841      0.871   -21.202
8.40896      1.318   -21.354
8.53128      1.765   -21.508
8.65537      2.213   -21.664
8.78126      2.660   -21.822
8.90899      3.108   -21.983
9.03857      3.555   -22.146
9.17004      4.003   -22.312
9.30342      4.451   -22.480
9.43874      4.898   -22.651
9.57603      5.346   -22.824
9.71532      5.794   -23.000
9.85663      6.242   -23.179
10.0000      6.690   -23.360
10.1455      7.138   -23.544
10.2930      7.586   -23.731
10.4427      8.034   -23.920
10.5946      8.483   -24.113
10.7487      8.931   -24.308
10.9051      9.379   -24.507
11.0637      9.828   -24.708
11.2246     10.277   -24.913
11.3879     10.725   -25.121
11.5535     11.174   -25.332
11.7216     11.623   -25.546
11.8921     12.072   -25.763
12.0650     12.521   -25.984
12.2405     12.970   -26.208
12.4186     13.419   -26.436
12.5992     13.868   -26.667
12.7825     14.318   -26.902
12.9684     14.767   -27.140
13.1570     15.217   -27.382
13.3484     15.667   -27.628
13.5426     16.117   -27.878
13.7395     16.567   -28.132
13.9394     17.017   -28.390
14.1421     17.467   -28.652
14.3478     17.917   -28.918
14.5565     18.368   -29.188
14.7683     18.818   -29.462
14.9831     19.269   -29.741
15.2010     19.720   -30.024
15.4221     20.171   -30.312
15.6464     20.622   -30.605
15.8740     21.074   -30.902
16.1049     21.525   -31.204
16.3392     21.977   -31.510
16.5768     22.429   -31.822
16.8179     22.881   -32.139
17.0626     23.333   -32.461
17.3107     23.786   -32.789
17.5625     24.238   -33.122
17.8180     24.691   -33.460
18.0771     25.144   -33.804
18.3401     25.597   -34.153
18.6068     26.051   -34.509
18.8775     26.505   -34.870
19.1521     26.958   -35.238
19.4306     27.413   -35.612
19.7133     27.874   -35.980
20.0000     28.350   -36.329
20.2909     28.855   -36.682
20.5860     29.395   -37.102
20.8855     29.941   -37.763
21.1893     30.468   -38.724
21.4975     30.950   -39.800
21.8102     31.366   -40.755
22.1274     31.735   -41.396
22.4492     32.105   -41.622
22.7758     32.509   -41.515
23.1071     32.962   -41.340
23.4432     33.463   -41.354
23.7841     33.986   -41.631
24.1301     34.500   -42.150
24.4811     34.994   -42.853
24.8372     35.467   -43.678
25.1984     35.931   -44.556
25.5649     36.397   -45.409
25.9368     36.875   -46.238
26.3141     37.370   -47.051
26.6968     37.872   -47.901
27.0851     38.370   -48.842
27.4791     38.857   -49.841
27.8788     39.327   -50.871
28.2843     39.782   -51.913
28.6957     40.235   -52.910
29.1131     40.691   -53.864
29.5365     41.162   -54.813
29.9661     41.648   -55.773
30.4020     42.145   -56.795
30.8442     42.644   -57.898
31.2929     43.133   -59.061
31.7480     43.611   -60.274
32.2098     44.084   -61.508
32.6783     44.555   -62.715
33.1536     45.040   -63.949
33.6359     45.539   -65.276
34.1251     46.050   -66.625
34.6215     46.543   -68.111
35.1250     47.005   -69.650
35.6359     47.446   -70.972
36.1543     47.880   -72.197
36.6802     48.328   -73.432
37.2137     48.810   -74.661
37.7550     49.319   -76.035
38.3041     49.838   -77.599
38.8613     50.343   -79.271
39.4265     50.831   -80.908
40.0000     51.307   -82.483
40.5818     51.781   -84.055
41.1721     52.258   -85.670
41.7710     52.740   -87.337
42.3785     53.223   -89.063
42.9949     53.708   -90.845
43.6203     54.196   -92.637
44.2548     54.683   -94.468
44.8985     55.170   -96.345
45.5515     55.659   -98.246
46.2141     56.144  -100.209
46.8863     56.622  -102.228
47.5683     57.093  -104.258
48.2602     57.560  -106.326
48.9621     58.028  -108.448
49.6743     58.496  -110.620
50.3968     58.966  -112.874
51.1299     59.438  -115.197
51.8736     59.905  -117.562
52.6281     60.364  -119.940
53.3936     60.817  -122.305
54.1702     61.267  -124.719
54.9581     61.711  -127.230
55.7575     62.150  -129.815
56.5685     62.583  -132.497
57.3914     63.008  -135.246
58.2261     63.424  -137.996
59.0730     63.832  -140.766
59.9323     64.234  -143.577
60.8040     64.632  -146.426
61.6884     65.024  -149.343
62.5857     65.407  -152.303
63.4960     65.777  -155.331
64.4196     66.128  -158.426
65.3566     66.461  -161.546
66.3073     66.780  -164.694
67.2717     67.088  -167.834
68.2502     67.391  -170.938
69.2429     67.690  -174.050
70.2501     67.981  -177.189
71.2719     68.257   179.617
72.3086     68.515   176.373
73.3603     68.753   173.120
74.4274     68.976   169.887
75.5099     69.187   166.697
76.6083     69.389   163.551
77.7226     69.582   160.425
78.8531     69.763   157.314
80.0000     69.927   154.226
81.1636     70.074   151.155
82.3442     70.211   148.133
83.5419     70.340   145.162
84.7570     70.461   142.208
85.9899     70.576   139.291
87.2406     70.682   136.422
88.5096     70.774   133.588
89.7970     70.858   130.799
91.1031     70.933   128.075
92.4282     71.001   125.402
93.7726     71.065   122.770
95.1366     71.122   120.182
96.5204     71.172   117.632
97.9243     71.215   115.125
99.3486     71.251   112.665
100.794     71.279   110.248
102.260     71.304   107.888
103.747     71.320   105.586
105.256     71.332   103.344
106.787     71.344   101.162
108.340     71.355    99.016
109.916     71.364    96.914
111.515     71.372    94.837
113.137     71.374    92.807
114.783     71.370    90.821
116.452     71.362    88.881
118.146     71.353    86.985
119.865     71.342    85.144
121.608     71.329    83.321
123.377     71.314    81.555
125.171     71.293    79.852
126.992     71.273    78.204
128.839     71.255    76.609
130.713     71.241    75.087
132.615     71.235    73.574
134.543     71.234    72.100
136.500     71.239    70.622
138.486     71.246    69.098
140.500     71.248    67.558
142.544     71.246    65.992
144.617     71.236    64.423
146.721     71.221    62.894
148.855     71.201    61.387
151.020     71.180    59.930
153.217     71.155    58.497
155.445     71.127    57.108
157.706     71.100    55.755
160.000     71.069    54.421
162.327     71.037    53.167
164.688     71.007    51.969
167.084     70.980    50.813
169.514     70.960    49.712
171.980     70.949    48.620
174.481     70.945    47.506
177.019     70.944    46.355
179.594     70.940    45.195
182.206     70.935    44.033
184.856     70.929    42.880
187.545     70.923    41.733
190.273     70.917    40.577
193.041     70.909    39.429
195.849     70.900    38.278
198.697     70.886    37.146
201.587     70.876    36.023
204.520     70.861    34.854
207.494     70.832    33.707
210.512     70.796    32.641
213.574     70.755    31.695
216.681     70.724    30.881
219.833     70.719    30.110
223.030     70.733    29.273
226.274     70.760    28.275
229.565     70.776    27.123
232.905     70.766    25.931
236.292     70.745    24.825
239.729     70.715    23.790
243.216     70.685    22.844
246.754     70.662    21.955
250.343     70.643    21.065
253.984     70.626    20.205
257.678     70.619    19.405
261.426     70.632    18.550
265.229     70.653    17.526
269.087     70.650    16.367
273.001     70.630    15.187
276.972     70.580    14.032
281.000     70.512    13.126
285.088     70.472    12.456
289.234     70.467    11.782
293.441     70.487    10.958
297.709     70.506     9.947
302.040     70.503     8.794
306.433     70.476     7.641
310.890     70.428     6.580
315.412     70.373     5.620
320.000     70.322     4.763
324.655     70.282     3.905
329.377     70.235     3.052
334.168     70.200     2.238
339.028     70.165     1.384
343.959     70.110     0.531
348.962     70.060    -0.174
354.038     70.016    -0.850
359.188     69.969    -1.516
364.412     69.940    -2.050
369.713     69.939    -2.676
375.090     69.941    -3.518
380.546     69.923    -4.407
386.081     69.893    -5.378
391.697     69.840    -6.232
397.394     69.780    -7.096
403.175     69.689    -7.890
409.039     69.589    -8.238
414.989     69.533    -8.436
421.025     69.516    -8.475
427.149     69.554    -8.515
433.362     69.648    -8.885
439.665     69.733    -9.719
446.060     69.787   -10.908
452.548     69.786   -12.217
459.131     69.727   -13.410
465.809     69.649   -14.319
472.584     69.578   -14.883
479.458     69.543   -15.375
486.432     69.539   -15.903
493.507     69.527   -16.554
500.686     69.511   -17.186
507.968     69.490   -17.765
515.357     69.465   -18.232
522.853     69.443   -18.467
530.458     69.500   -18.625
538.174     69.581   -19.051
546.002     69.706   -19.710
553.943     69.843   -20.936
562.001     69.911   -22.517
570.175     69.930   -24.076
578.469     69.878   -25.635
586.883     69.765   -26.720
595.419     69.695   -27.251
604.080     69.660   -27.837
612.866     69.694   -28.564
621.780     69.731   -29.455
630.824     69.753   -30.645
640.000     69.753   -31.832
649.309     69.735   -32.741
658.753     69.775   -33.794
668.335     69.813   -35.147
678.056     69.845   -36.689
687.919     69.846   -38.577
697.925     69.753   -40.226
708.077     69.664   -41.414
718.376     69.655   -42.438
728.825     69.646   -44.421
739.426     69.457   -46.465
750.181     69.261   -47.201
761.093     69.160   -48.004
772.163     69.071   -48.671
783.394     69.033   -49.349
794.789     68.995   -50.511
806.349     68.931   -51.600
818.078     68.909   -52.786
829.977     68.846   -54.331
842.050     68.780   -55.807
854.298     68.739   -57.496
866.724     68.620   -59.521
879.330     68.412   -61.669
892.120     68.169   -63.275
905.097     67.788   -64.657
918.262     67.372   -64.815
931.618     67.092   -64.017
945.169     66.875   -63.397
958.917     66.780   -62.587
972.864     66.786   -62.511
987.015     66.653   -62.903
1001.37     66.549   -62.451
1015.94     66.493   -61.974
1030.71     66.508   -61.362
1045.71     66.663   -60.605
1060.92     66.903   -60.949
1076.35     67.106   -63.122
1092.00     67.046   -65.952
1107.89     66.754   -68.547
1124.00     66.385   -70.581
1140.35     65.820   -71.406
1156.94     65.244   -69.446
1173.77     65.096   -65.492
1190.84     65.348   -61.913
1208.16     65.814   -60.111
1225.73     66.275   -60.579
1243.56     66.585   -62.566
1261.65     66.706   -64.848
1280.00     66.713   -66.906
1298.62     66.741   -68.030
1317.51     66.744   -69.355
1336.67     66.689   -70.730
1356.11     66.623   -71.411
1375.84     66.538   -72.246
1395.85     66.452   -72.603
1416.15     66.407   -72.615
1436.75     66.438   -72.521
1457.65     66.574   -72.477
1478.85     66.716   -73.162
1500.36     66.816   -73.738
1522.19     67.027   -73.997
1544.33     67.234   -74.898
1566.79     67.453   -76.042
1589.58     67.709   -77.121
1612.70     67.953   -78.427
1636.16     68.234   -80.240
1659.95     68.527   -82.346
1684.10     68.753   -85.040
1708.60     68.938   -88.604
1733.45     68.971   -92.274
1758.66     68.896   -95.423
1784.24     68.778   -97.938
1810.19     68.648   -99.776
1836.52     68.579  -100.782
1863.24     68.609  -102.024
1890.34     68.690  -103.795
1917.83     68.846  -105.322
1945.73     69.087  -107.494
1974.03     69.386  -110.378
2002.74     69.714  -113.447
2031.87     70.008  -117.740
2061.43     70.173  -122.594
2091.41     70.281  -127.322
2121.83     70.250  -132.589
2152.69     70.080  -137.082
2184.01     69.914  -140.731
2215.77     69.728  -144.192
2248.00     69.558  -147.429
2280.70     69.444  -150.469
2313.87     69.369  -153.839
2347.53     69.395  -157.602
2381.68     69.435  -161.699
2416.32     69.497  -166.227
2451.46     69.536  -171.382
2487.12     69.453  -176.510
2523.30     69.291   178.183
2560.00     69.032   172.992
2597.24     68.752   168.299
2635.01     68.516   163.651
2673.34     68.327   159.043
2712.23     68.192   154.029
2751.68     68.059   148.518
2791.70     67.949   142.486
2832.31     67.799   135.935
2873.50     67.607   129.303
2915.30     67.447   122.893
2957.70     67.296   116.187
3000.72     67.175   109.213
3044.37     67.039   101.272
3088.65     66.832    92.623
3133.58     66.571    83.158
3179.16     66.213    72.799
3225.40     65.698    62.295
3272.31     65.093    52.342
3319.91     64.519    42.740
3368.20     63.980    33.945
3417.19     63.599    25.422
3466.89     63.483    16.470
3517.32     63.521     6.442
3568.48     63.635    -4.342
3620.39     63.843   -15.468
3673.05     64.072   -27.074
3726.47     64.362   -38.782
3780.67     64.720   -50.838
3835.67     65.068   -63.678
3891.46     65.347   -76.706
3948.06     65.558   -88.929
4005.49     65.737  -100.341
4063.75     65.942  -110.637
4122.86     66.209  -120.168
4182.82     66.589  -129.517
4243.66     67.076  -139.433
4305.39     67.528  -150.436
4368.01     67.886  -162.076
4431.55     68.151  -173.934
4496.01     68.271   173.987
4561.40     68.300   162.379
4627.75     68.284   150.832
4695.06     68.192   139.178
4763.35     68.007   127.660
4832.64     67.682   116.539
4902.93     67.230   106.096
4974.24     66.644    97.466
5046.60     66.194    91.380
5120.00     66.213    86.077
5194.47     66.607    79.382
5270.03     67.157    70.282
5346.68     67.646    59.068
5424.45     67.997    46.851
5503.35     68.224    33.807
5583.40     68.297    20.511
5664.61     68.315     7.337
5747.01     68.294    -6.210
5830.60     68.168   -19.559
5915.41     68.063   -32.558
6001.45     67.955   -45.685
6088.74     67.834   -58.847
6177.30     67.767   -72.203
6267.15     67.655   -86.255
6358.31     67.456  -100.461
6450.80     67.216  -114.492
6544.62     66.891  -128.481
6639.82     66.496  -141.535
6736.40     66.191  -153.432
6834.38     66.053  -165.244
6933.79     66.033  -177.430
7034.64     66.166   169.789
7136.96     66.381   155.791
7240.77     66.548   140.334
7346.09     66.629   124.007
7452.94     66.576   107.539
7561.35     66.457    91.108
7671.33     66.300    74.810
7782.91     66.119    58.847
7896.12     66.001    42.882
8010.97     65.932    26.536
8127.49     65.852     9.448
8245.71     65.751    -8.223
8365.65     65.562   -26.415
8487.33     65.200   -44.581
8610.78     64.734   -61.787
8736.03     64.289   -78.130
8863.09     63.949   -94.154
8992.01     63.739  -110.169
9122.80     63.697  -126.771
9255.50     63.757  -144.529
9390.12     63.735  -163.031
9526.70     63.678   178.471
9665.27     63.625   160.069
9805.86     63.579   141.719
9948.49     63.596   123.359
10093.2     63.719   104.611
10240.0     63.916    84.370
10388.9     64.007    62.636
10540.1     63.954    40.498
10693.4     63.864    18.151
10848.9     63.697    -4.586
11006.7     63.485   -27.458
11166.8     63.271   -50.873
11329.2     62.924   -74.686
11494.0     62.440   -97.998
11661.2     61.923  -120.122
11830.8     61.451  -141.800
12002.9     61.069  -163.221
12177.5     60.871   174.791
12354.6     60.723   151.150
12534.3     60.413   126.605
12716.6     59.973   102.747
12901.6     59.616    79.276
13089.2     59.261    56.091
13279.6     59.070    33.545
13472.8     59.053     9.656
13668.8     58.950   -14.599
13867.6     58.995   -38.964
14069.3     59.127   -65.052
14273.9     59.207   -91.885
14481.5     59.379  -119.908
14692.2     59.431  -149.838
14905.9     59.354   179.788
15122.7     59.194   148.467
15342.7     58.784   116.943
15565.8     58.316    85.960
15792.2     57.750    55.482
16021.9     57.213    25.695
16255.0     56.752    -4.236
16491.4     56.310   -34.179
16731.3     55.887   -64.106
16974.7     55.529   -94.401
17221.6     55.069  -124.660
17472.1     54.680  -154.383
17726.2     54.422   176.416
17984.0     54.336   146.822
18245.6     54.344   116.767
18511.0     54.538    86.278
18780.2     54.902    54.294
19053.4     55.458    20.548
19330.5     56.012   -15.582
19611.7     56.653   -54.009
19897.0     57.119   -93.981
20186.4     57.407  -135.485
20480.0     57.583  -176.923
20777.9     57.631   141.732
21080.1     57.693   100.129
21386.7     57.781    58.143
21697.8     57.761    15.320
22013.4     57.789   -27.991
22333.6     57.808   -72.052
22658.4     57.850  -117.366
22988.0     57.865  -164.157
23322.4     57.548   146.794
