Freq[Hz]     dBSPL  Phase[Deg]
Freq[Hz]     dBSPL  Phase[Deg]
5.00000    -14.489   -15.267
5.07273    -14.147   -15.351
5.14651    -13.777   -15.440
5.22137    -13.368   -15.538
5.29732    -12.942   -15.640
5.37437    -12.499   -15.747
5.45254    -12.055   -15.855
5.53185    -11.611   -15.964
5.61231    -11.167   -16.075
5.69394    -10.724   -16.188
5.77676    -10.280   -16.301
5.86079     -9.836   -16.417
5.94604     -9.392   -16.533
6.03252     -8.949   -16.651
6.12027     -8.505   -16.771
6.20929     -8.061   -16.892
6.29961     -7.617   -17.015
6.39124     -7.173   -17.139
6.48420     -6.729   -17.266
6.57851     -6.285   -17.394
6.67420     -5.841   -17.523
6.77128     -5.397   -17.655
6.86977     -4.953   -17.788
6.96969     -4.509   -17.923
7.07107     -4.065   -18.061
7.17392     -3.620   -18.200
7.27827     -3.176   -18.341
7.38413     -2.731   -18.485
7.49154     -2.287   -18.631
7.60050     -1.842   -18.779
7.71105     -1.398   -18.929
7.82321     -0.953   -19.082
7.93701     -0.508   -19.237
8.05245     -0.064   -19.395
8.16958      0.381   -19.555
8.28841      0.826   -19.718
8.40896      1.271   -19.883
8.53128      1.716   -20.051
8.65537      2.161   -20.221
8.78126      2.606   -20.394
8.90899      3.051   -20.570
9.03857      3.496   -20.748
9.17004      3.941   -20.929
9.30342      4.386   -21.113
9.43874      4.831   -21.300
9.57603      5.276   -21.489
9.71532      5.722   -21.681
9.85663      6.167   -21.876
10.0000      6.612   -22.073
10.1455      7.058   -22.274
10.2930      7.503   -22.477
10.4427      7.949   -22.684
10.5946      8.395   -22.893
10.7487      8.840   -23.106
10.9051      9.286   -23.321
11.0637      9.732   -23.541
11.2246     10.178   -23.763
11.3879     10.624   -23.989
11.5535     11.070   -24.218
11.7216     11.517   -24.451
11.8921     11.963   -24.687
12.0650     12.410   -24.928
12.2405     12.856   -25.172
12.4186     13.303   -25.419
12.5992     13.750   -25.671
12.7825     14.197   -25.927
12.9684     14.644   -26.186
13.1570     15.091   -26.450
13.3484     15.538   -26.718
13.5426     15.985   -26.990
13.7395     16.433   -27.266
13.9394     16.880   -27.546
14.1421     17.328   -27.831
14.3478     17.776   -28.120
14.5565     18.223   -28.414
14.7683     18.671   -28.712
14.9831     19.120   -29.015
15.2010     19.568   -29.323
15.4221     20.017   -29.635
15.6464     20.465   -29.953
15.8740     20.914   -30.276
16.1049     21.363   -30.604
16.3392     21.812   -30.937
16.5768     22.262   -31.276
16.8179     22.711   -31.620
17.0626     23.161   -31.970
17.3107     23.611   -32.325
17.5625     24.061   -32.687
17.8180     24.511   -33.054
18.0771     24.962   -33.427
18.3401     25.412   -33.806
18.6068     25.863   -34.192
18.8775     26.314   -34.584
19.1521     26.766   -34.982
19.4306     27.217   -35.387
19.7133     27.676   -35.785
20.0000     28.153   -36.157
20.2909     28.664   -36.522
20.5860     29.216   -36.949
20.8855     29.781   -37.634
21.1893     30.331   -38.653
21.4975     30.831   -39.823
21.8102     31.252   -40.900
22.1274     31.610   -41.664
22.4492     31.961   -41.970
22.7758     32.344   -41.880
23.1071     32.783   -41.677
23.4432     33.282   -41.641
23.7841     33.809   -41.877
24.1301     34.326   -42.393
24.4811     34.822   -43.124
24.8372     35.295   -43.993
25.1984     35.756   -44.914
25.5649     36.221   -45.792
25.9368     36.698   -46.625
26.3141     37.194   -47.424
26.6968     37.698   -48.260
27.0851     38.199   -49.198
27.4791     38.689   -50.204
27.8788     39.159   -51.258
28.2843     39.614   -52.335
28.6957     40.064   -53.366
29.1131     40.519   -54.352
29.5365     40.989   -55.325
29.9661     41.475   -56.304
30.4020     41.971   -57.340
30.8442     42.468   -58.455
31.2929     42.953   -59.629
31.7480     43.428   -60.854
32.2098     43.899   -62.100
32.6783     44.366   -63.319
33.1536     44.848   -64.543
33.6359     45.350   -65.834
34.1251     45.864   -67.119
34.6215     46.370   -68.560
35.1250     46.850   -70.116
35.6359     47.305   -71.509
36.1543     47.744   -72.891
36.6802     48.188   -74.322
37.2137     48.653   -75.690
37.7550     49.144   -77.129
38.3041     49.648   -78.687
38.8613     50.145   -80.301
39.4265     50.629   -81.869
40.0000     51.105   -83.401
40.5818     51.581   -84.965
41.1721     52.062   -86.594
41.7710     52.544   -88.286
42.3785     53.027   -90.036
42.9949     53.510   -91.838
43.6203     53.998   -93.642
44.2548     54.484   -95.481
44.8985     54.971   -97.368
45.5515     55.461   -99.275
46.2141     55.948  -101.252
46.8863     56.428  -103.288
47.5683     56.900  -105.339
48.2602     57.367  -107.432
48.9621     57.836  -109.584
49.6743     58.303  -111.781
50.3968     58.773  -114.058
51.1299     59.246  -116.405
51.8736     59.714  -118.791
52.6281     60.174  -121.191
53.3936     60.628  -123.583
54.1702     61.079  -126.027
54.9581     61.524  -128.578
55.7575     61.964  -131.205
56.5685     62.397  -133.933
57.3914     62.819  -136.728
58.2261     63.232  -139.519
59.0730     63.637  -142.325
59.9323     64.036  -145.169
60.8040     64.430  -148.046
61.6884     64.818  -150.985
62.5857     65.197  -153.952
63.4960     65.564  -156.978
64.4196     65.917  -160.072
65.3566     66.254  -163.212
66.3073     66.576  -166.402
67.2717     66.885  -169.597
68.2502     67.185  -172.760
69.2429     67.476  -175.913
70.2501     67.761  -179.055
71.2719     68.035   177.763
72.3086     68.295   174.523
73.3603     68.536   171.259
74.4274     68.762   168.002
75.5099     68.975   164.780
76.6083     69.176   161.604
77.7226     69.370   158.454
78.8531     69.551   155.317
80.0000     69.714   152.190
81.1636     69.861   149.077
82.3442     69.996   146.020
83.5419     70.122   143.034
84.7570     70.243   140.079
85.9899     70.362   137.157
87.2406     70.473   134.276
88.5096     70.573   131.404
89.7970     70.662   128.556
91.1031     70.741   125.767
92.4282     70.809   123.023
93.7726     70.873   120.322
95.1366     70.929   117.672
96.5204     70.977   115.065
97.9243     71.019   112.509
99.3486     71.053   110.003
100.794     71.079   107.541
102.260     71.102   105.140
103.747     71.119   102.789
105.256     71.130   100.490
106.787     71.140    98.254
108.340     71.149    96.060
109.916     71.155    93.916
111.515     71.159    91.814
113.137     71.159    89.769
114.783     71.155    87.767
116.452     71.150    85.813
118.146     71.147    83.900
119.865     71.142    82.023
121.608     71.138    80.153
123.377     71.131    78.327
125.171     71.118    76.540
126.992     71.107    74.805
128.839     71.098    73.116
130.713     71.094    71.466
132.615     71.097    69.791
134.543     71.097    68.115
136.500     71.094    66.415
138.486     71.083    64.699
140.500     71.059    63.025
142.544     71.032    61.406
144.617     71.000    59.861
146.721     70.970    58.407
148.855     70.951    56.987
151.020     70.939    55.584
153.217     70.931    54.148
155.445     70.923    52.695
157.706     70.913    51.222
160.000     70.895    49.740
162.327     70.871    48.320
164.688     70.848    46.939
167.084     70.825    45.576
169.514     70.801    44.236
171.980     70.778    42.904
174.481     70.753    41.586
177.019     70.724    40.306
179.594     70.697    39.125
182.206     70.681    37.986
184.856     70.678    36.836
187.545     70.684    35.628
190.273     70.690    34.329
193.041     70.688    32.969
195.849     70.674    31.614
198.697     70.652    30.295
201.587     70.633    29.022
204.520     70.614    27.717
207.494     70.587    26.392
210.512     70.552    25.087
213.574     70.505    23.849
216.681     70.455    22.707
219.833     70.408    21.635
223.030     70.372    20.647
226.274     70.354    19.640
229.565     70.343    18.552
232.905     70.331    17.447
236.292     70.326    16.313
239.729     70.318    15.102
243.216     70.302    13.862
246.754     70.277    12.569
250.343     70.237    11.271
253.984     70.180     9.990
257.678     70.110     8.845
261.426     70.037     7.802
265.229     69.974     6.925
269.087     69.939     6.077
273.001     69.924     5.089
276.972     69.898     3.961
281.000     69.858     2.811
285.088     69.804     1.683
289.234     69.734     0.677
293.441     69.676    -0.190
297.709     69.643    -1.034
302.040     69.616    -2.022
306.433     69.580    -3.050
310.890     69.529    -4.073
315.412     69.470    -5.036
320.000     69.415    -5.825
324.655     69.382    -6.591
329.377     69.375    -7.423
334.168     69.376    -8.391
339.028     69.378    -9.526
343.959     69.368   -10.850
348.962     69.328   -12.236
354.038     69.266   -13.574
359.188     69.189   -14.912
364.412     69.085   -16.109
369.713     68.996   -17.155
375.090     68.913   -18.262
380.546     68.808   -19.340
386.081     68.709   -20.261
391.697     68.612   -21.140
397.394     68.523   -22.061
403.175     68.439   -23.060
409.039     68.321   -24.068
414.989     68.195   -25.005
421.025     68.053   -25.628
427.149     67.933   -26.059
433.362     67.861   -26.437
439.665     67.823   -27.008
446.060     67.794   -27.993
452.548     67.710   -29.260
459.131     67.556   -30.279
465.809     67.397   -30.987
472.584     67.218   -31.495
479.458     67.047   -31.369
486.432     66.974   -31.015
493.507     66.956   -30.939
500.686     66.962   -30.806
507.968     67.068   -30.936
515.357     67.172   -31.884
522.853     67.210   -33.151
530.458     67.235   -34.409
538.174     67.197   -35.887
546.002     67.124   -37.022
553.943     67.129   -38.043
562.001     67.109   -39.711
570.175     67.013   -41.503
578.469     66.849   -43.354
586.883     66.543   -44.720
595.419     66.242   -45.323
604.080     65.965   -45.441
612.866     65.782   -44.822
621.780     65.789   -44.685
630.824     65.789   -45.255
640.000     65.739   -45.795
649.309     65.695   -46.577
658.753     65.631   -47.149
668.335     65.594   -47.685
678.056     65.542   -48.337
687.919     65.531   -49.034
697.925     65.498   -49.941
708.077     65.442   -50.770
718.376     65.523   -51.429
728.825     65.667   -53.693
739.426     65.562   -56.890
750.181     65.315   -59.118
761.093     65.051   -61.287
772.163     64.670   -63.144
783.394     64.195   -63.711
794.789     63.827   -63.181
806.349     63.631   -62.219
818.078     63.520   -61.227
829.977     63.557   -60.167
842.050     63.696   -60.145
854.298     63.807   -60.766
866.724     63.929   -61.681
879.330     64.052   -64.022
892.120     64.004   -66.037
905.097     63.839   -68.260
918.262     63.515   -69.615
931.618     63.180   -68.698
945.169     62.970   -68.103
958.917     62.844   -66.778
972.864     62.973   -65.602
987.015     63.055   -67.036
1001.37     62.961   -67.472
1015.94     62.911   -68.009
1030.71     62.713   -68.310
1045.71     62.577   -66.768
1060.92     62.676   -65.404
1076.35     62.968   -64.951
1092.00     63.321   -65.942
1107.89     63.665   -68.844
1124.00     63.961   -73.260
1140.35     63.951   -79.647
1156.94     63.479   -85.296
1173.77     62.880   -88.440
1190.84     62.313   -90.027
1208.16     61.850   -91.201
1225.73     61.463   -92.072
1243.56     61.123   -92.719
1261.65     60.851   -93.985
1280.00     60.549   -95.650
1298.62     60.030   -97.253
1317.51     59.549   -97.189
1336.67     59.119   -96.605
1356.11     58.544   -94.506
1375.84     58.394   -90.788
1395.85     58.436   -88.228
1416.15     58.574   -86.185
1436.75     58.926   -86.236
1457.65     58.962   -88.077
1478.85     58.974   -89.683
1500.36     58.851   -92.313
1522.19     58.445   -94.248
1544.33     58.199   -95.700
1566.79     57.814   -97.658
1589.58     57.495   -98.860
1612.70     57.385  -101.694
1636.16     57.001  -105.228
1659.95     56.590  -111.012
1684.10     55.575  -117.888
1708.60     53.942  -121.560
1733.45     52.208  -120.977
1758.66     50.378  -115.591
1784.24     49.386  -104.042
1810.19     49.471   -98.176
1836.52     49.526   -98.015
1863.24     48.919   -99.921
1890.34     47.242  -104.960
1917.83     46.412  -111.730
1945.73     45.869  -118.003
1974.03     45.889  -132.008
2002.74     47.002  -145.660
2031.87     47.799  -159.374
2061.43     47.938  -176.943
2091.41     48.287   169.579
2121.83     48.409   156.970
2152.69     48.981   146.056
2184.01     49.812   138.648
2215.77     50.256   130.909
2248.00     50.726   123.941
2280.70     50.470   122.082
2313.87     50.254   121.367
2347.53     50.475   125.542
2381.68     50.835   130.998
2416.32     51.632   133.563
2451.46     52.739   135.721
2487.12     53.661   138.509
2523.30     54.810   141.203
2560.00     56.196   142.866
2597.24     57.660   142.004
2635.01     58.851   139.726
2673.34     59.920   136.471
2712.23     60.734   132.276
2751.68     61.322   128.175
2791.70     61.772   124.923
2832.31     61.892   122.099
2873.50     61.668   119.551
2915.30     61.139   119.019
2957.70     60.566   120.063
3000.72     60.205   121.998
3044.37     59.910   124.214
3088.65     59.782   127.193
3133.58     59.873   129.429
3179.16     59.812   130.696
3225.40     59.717   131.526
3272.31     59.573   131.813
3319.91     59.102   131.955
3368.20     58.573   134.329
3417.19     58.150   137.820
3466.89     57.655   142.523
3517.32     57.357   147.940
3568.48     57.160   152.520
3620.39     56.836   156.177
3673.05     56.387   159.755
3726.47     55.921   163.285
3780.67     55.243   167.340
3835.67     54.506   173.600
3891.46     53.988  -178.812
3948.06     53.297  -171.601
4005.49     52.655  -160.433
4063.75     52.701  -146.851
4122.86     52.988  -132.037
4182.82     54.074  -116.381
4243.66     55.545  -104.244
4305.39     56.838   -97.449
4368.01     57.965   -97.593
4431.55     58.517  -102.660
4496.01     58.206  -108.536
4561.40     57.303  -111.254
4627.75     55.703  -107.368
4695.06     53.542   -95.696
4763.35     51.784   -76.470
4832.64     51.865   -53.607
4902.93     53.240   -36.887
4974.24     54.633   -27.576
5046.60     55.587   -24.228
5120.00     55.911   -22.843
5194.47     55.758   -20.603
5270.03     55.107   -16.407
5346.68     53.999    -7.252
5424.45     53.499     7.650
5503.35     54.215    19.321
5583.40     54.711    25.213
5664.61     54.698    30.099
5747.01     54.301    37.354
5830.60     53.875    47.446
5915.41     53.669    60.101
6001.45     53.656    73.344
6088.74     53.795    85.560
6177.30     54.062    95.358
6267.15     53.891   102.364
6358.31     53.446   109.623
6450.80     52.572   120.016
6544.62     51.824   134.998
6639.82     51.657   151.027
6736.40     51.925   166.319
6834.38     52.384   179.009
6933.79     52.487  -172.592
7034.64     51.731  -162.247
7136.96     50.288  -148.320
7240.77     48.548  -130.579
7346.09     47.129  -106.357
7452.94     47.035   -85.262
7561.35     47.719   -67.703
7671.33     48.109   -51.908
7782.91     48.535   -37.110
7896.12     48.948   -23.601
8010.97     48.716   -10.931
8127.49     48.444     4.543
8245.71     48.547    18.788
8365.65     48.385    29.741
8487.33     48.280    43.783
8610.78     48.360    58.111
8736.03     48.286    72.025
8863.09     48.008    87.960
8992.01     47.465   104.719
9122.80     46.580   122.798
9255.50     45.496   145.202
9390.12     45.067   169.456
9526.70     45.732  -168.546
9665.27     46.276  -150.371
9805.86     46.950  -128.792
9948.49     47.758  -107.614
10093.2     47.917   -88.961
10240.0     47.748   -64.969
10388.9     47.622   -41.504
10540.1     47.349   -22.938
10693.4     46.885    -2.708
10848.9     46.626    19.421
11006.7     46.934    41.199
11166.8     47.116    61.986
11329.2     47.526    84.343
11494.0     47.995   103.102
11661.2     48.024   125.150
11830.8     48.398   148.565
12002.9     48.525   167.328
12177.5     48.266  -168.754
12354.6     48.367  -146.571
12534.3     48.066  -127.323
12716.6     47.650  -104.956
12901.6     47.085   -82.712
13089.2     46.365   -56.569
13279.6     46.040   -27.747
13472.8     45.819     0.279
13668.8     46.031    30.116
13867.6     46.734    56.810
14069.3     47.255    80.580
14273.9     47.644   102.851
14481.5     47.427   125.273
14692.2     46.988   151.790
14905.9     46.762   179.704
15122.7     46.406  -151.521
15342.7     46.387  -121.767
15565.8     46.808   -90.466
15792.2     47.393   -61.869
16021.9     47.829   -33.552
16255.0     48.591    -7.199
16491.4     49.094    11.492
16731.3     49.181    26.670
16974.7     49.163    36.974
17221.6     48.435    40.486
17472.1     47.463    45.461
17726.2     46.916    44.943
17984.0     46.292    43.675
18245.6     46.481    44.604
18511.0     47.125    46.321
18780.2     47.744    52.705
19053.4     48.160    63.301
19330.5     48.078    76.946
19611.7     47.662    91.196
19897.0     46.563   101.078
20186.4     44.955   102.516
20480.0     43.577    88.662
20777.9     42.562    67.834
21080.1     41.722    46.839
21386.7     41.366    34.126
21697.8     40.705    41.504
22013.4     40.232    68.810
22333.6     40.337   108.976
22658.4     41.471   153.009
22988.0     42.911  -167.734
23322.4     43.810  -132.733
