Freq[Hz]     dBSPL  Phase[Deg]
Freq[Hz]     dBSPL  Phase[Deg]
5.00000    -14.835   -15.290
5.07273    -14.492   -15.375
5.14651    -14.121   -15.466
5.22137    -13.710   -15.566
5.29732    -13.283   -15.670
5.37437    -12.837   -15.779
5.45254    -12.392   -15.890
5.53185    -11.946   -16.003
5.61231    -11.501   -16.117
5.69394    -11.055   -16.232
5.77676    -10.610   -16.349
5.86079    -10.164   -16.468
5.94604     -9.719   -16.588
6.03252     -9.273   -16.710
6.12027     -8.828   -16.833
6.20929     -8.382   -16.958
6.29961     -7.937   -17.085
6.39124     -7.491   -17.214
6.48420     -7.045   -17.344
6.57851     -6.600   -17.476
6.67420     -6.154   -17.610
6.77128     -5.708   -17.746
6.86977     -5.262   -17.884
6.96969     -4.816   -18.024
7.07107     -4.370   -18.166
7.17392     -3.924   -18.310
7.27827     -3.478   -18.456
7.38413     -3.032   -18.604
7.49154     -2.586   -18.755
7.60050     -2.140   -18.907
7.71105     -1.694   -19.062
7.82321     -1.247   -19.220
7.93701     -0.801   -19.380
8.05245     -0.354   -19.542
8.16958      0.092   -19.707
8.28841      0.539   -19.875
8.40896      0.985   -20.045
8.53128      1.432   -20.218
8.65537      1.878   -20.393
8.78126      2.325   -20.572
8.90899      2.772   -20.752
9.03857      3.218   -20.936
9.17004      3.665   -21.122
9.30342      4.112   -21.312
9.43874      4.559   -21.504
9.57603      5.006   -21.699
9.71532      5.453   -21.896
9.85663      5.900   -22.097
10.0000      6.347   -22.301
10.1455      6.794   -22.507
10.2930      7.241   -22.717
10.4427      7.689   -22.930
10.5946      8.136   -23.146
10.7487      8.583   -23.365
10.9051      9.031   -23.588
11.0637      9.479   -23.813
11.2246      9.926   -24.042
11.3879     10.374   -24.275
11.5535     10.822   -24.511
11.7216     11.270   -24.751
11.8921     11.718   -24.995
12.0650     12.166   -25.242
12.2405     12.615   -25.494
12.4186     13.063   -25.749
12.5992     13.511   -26.008
12.7825     13.960   -26.272
12.9684     14.409   -26.539
13.1570     14.857   -26.810
13.3484     15.306   -27.086
13.5426     15.755   -27.366
13.7395     16.204   -27.651
13.9394     16.654   -27.939
14.1421     17.103   -28.233
14.3478     17.552   -28.531
14.5565     18.002   -28.833
14.7683     18.452   -29.140
14.9831     18.902   -29.452
15.2010     19.352   -29.769
15.4221     19.802   -30.091
15.6464     20.252   -30.418
15.8740     20.703   -30.750
16.1049     21.154   -31.088
16.3392     21.605   -31.431
16.5768     22.056   -31.780
16.8179     22.507   -32.134
17.0626     22.958   -32.494
17.3107     23.410   -32.860
17.5625     23.862   -33.232
17.8180     24.314   -33.610
18.0771     24.766   -33.994
18.3401     25.218   -34.384
18.6068     25.671   -34.781
18.8775     26.123   -35.184
19.1521     26.576   -35.594
19.4306     27.030   -36.011
19.7133     27.491   -36.420
20.0000     27.968   -36.804
20.2909     28.480   -37.179
20.5860     29.031   -37.612
20.8855     29.595   -38.290
21.1893     30.142   -39.290
21.4975     30.642   -40.435
21.8102     31.065   -41.496
22.1274     31.432   -42.257
22.4492     31.791   -42.580
22.7758     32.182   -42.526
23.1071     32.623   -42.365
23.4432     33.119   -42.367
23.7841     33.642   -42.629
24.1301     34.157   -43.157
24.4811     34.652   -43.894
24.8372     35.126   -44.769
25.1984     35.589   -45.700
25.5649     36.054   -46.595
25.9368     36.532   -47.450
26.3141     37.028   -48.271
26.6968     37.532   -49.126
27.0851     38.033   -50.079
27.4791     38.523   -51.099
27.8788     38.993   -52.165
28.2843     39.448   -53.254
28.6957     39.900   -54.299
29.1131     40.356   -55.298
29.5365     40.828   -56.290
29.9661     41.315   -57.290
30.4020     41.813   -58.355
30.8442     42.312   -59.502
31.2929     42.797   -60.709
31.7480     43.273   -61.964
32.2098     43.743   -63.236
32.6783     44.212   -64.477
33.1536     44.696   -65.728
33.6359     45.199   -67.060
34.1251     45.715   -68.397
34.6215     46.218   -69.898
35.1250     46.692   -71.506
35.6359     47.138   -72.931
36.1543     47.571   -74.317
36.6802     48.011   -75.735
37.2137     48.477   -77.091
37.7550     48.972   -78.533
38.3041     49.480   -80.113
38.8613     49.978   -81.767
39.4265     50.462   -83.381
40.0000     50.935   -84.952
40.5818     51.407   -86.543
41.1721     51.883   -88.192
41.7710     52.362   -89.892
42.3785     52.842   -91.641
42.9949     53.325   -93.438
43.6203     53.814   -95.237
44.2548     54.304   -97.081
44.8985     54.796   -98.987
45.5515     55.289  -100.927
46.2141     55.778  -102.946
46.8863     56.259  -105.025
47.5683     56.731  -107.117
48.2602     57.197  -109.250
48.9621     57.665  -111.435
49.6743     58.131  -113.665
50.3968     58.600  -115.974
51.1299     59.071  -118.347
51.8736     59.537  -120.761
52.6281     59.997  -123.189
53.3936     60.449  -125.604
54.1702     60.899  -128.065
54.9581     61.345  -130.632
55.7575     61.786  -133.275
56.5685     62.220  -136.023
57.3914     62.645  -138.847
58.2261     63.060  -141.671
59.0730     63.466  -144.515
59.9323     63.866  -147.394
60.8040     64.262  -150.305
61.6884     64.652  -153.279
62.5857     65.034  -156.289
63.4960     65.404  -159.367
64.4196     65.758  -162.527
65.3566     66.094  -165.732
66.3073     66.413  -168.984
67.2717     66.719  -172.232
68.2502     67.014  -175.436
69.2429     67.303  -178.618
70.2501     67.586   178.216
71.2719     67.860   175.013
72.3086     68.120   171.751
73.3603     68.364   168.462
74.4274     68.592   165.171
75.5099     68.807   161.909
76.6083     69.010   158.684
77.7226     69.204   155.478
78.8531     69.386   152.285
80.0000     69.548   149.103
81.1636     69.692   145.942
82.3442     69.824   142.853
83.5419     69.950   139.846
84.7570     70.074   136.868
85.9899     70.197   133.919
87.2406     70.314   130.995
88.5096     70.419   128.060
89.7970     70.513   125.142
91.1031     70.594   122.281
92.4282     70.664   119.462
93.7726     70.728   116.688
95.1366     70.785   113.967
96.5204     70.833   111.289
97.9243     70.875   108.666
99.3486     70.909   106.094
100.794     70.937   103.566
102.260     70.963   101.098
103.747     70.981    98.671
105.256     70.995    96.291
106.787     71.008    93.966
108.340     71.017    91.676
109.916     71.023    89.430
111.515     71.026    87.218
113.137     71.021    85.058
114.783     71.009    82.945
116.452     70.992    80.904
118.146     70.976    78.950
119.865     70.962    77.066
121.608     70.955    75.207
123.377     70.950    73.393
125.171     70.944    71.582
126.992     70.939    69.789
128.839     70.934    68.031
130.713     70.930    66.325
132.615     70.935    64.627
134.543     70.941    62.944
136.500     70.952    61.229
138.486     70.962    59.457
140.500     70.958    57.661
142.544     70.949    55.867
144.617     70.927    54.106
146.721     70.900    52.437
148.855     70.878    50.832
151.020     70.862    49.270
153.217     70.852    47.694
155.445     70.842    46.095
157.706     70.831    44.459
160.000     70.810    42.804
162.327     70.777    41.205
164.688     70.742    39.667
167.084     70.705    38.177
169.514     70.668    36.725
171.980     70.631    35.300
174.481     70.592    33.916
177.019     70.550    32.596
179.594     70.512    31.402
182.206     70.491    30.281
184.856     70.491    29.167
187.545     70.510    27.983
190.273     70.535    26.659
193.041     70.554    25.228
195.849     70.561    23.735
198.697     70.555    22.246
201.587     70.547    20.795
204.520     70.538    19.302
207.494     70.519    17.786
210.512     70.491    16.285
213.574     70.449    14.800
216.681     70.395    13.382
219.833     70.331    12.052
223.030     70.264    10.902
226.274     70.220     9.901
229.565     70.200     8.912
232.905     70.196     7.927
236.292     70.222     6.901
239.729     70.264     5.626
243.216     70.291     4.124
246.754     70.293     2.517
250.343     70.271     0.892
253.984     70.224    -0.710
257.678     70.152    -2.148
261.426     70.084    -3.418
265.229     70.034    -4.575
269.087     70.001    -5.772
273.001     69.980    -7.036
276.972     69.952    -8.393
281.000     69.911    -9.750
285.088     69.865   -11.013
289.234     69.824   -12.224
293.441     69.798   -13.431
297.709     69.781   -14.727
302.040     69.756   -16.201
306.433     69.704   -17.735
310.890     69.616   -19.116
315.412     69.532   -20.295
320.000     69.471   -21.310
324.655     69.439   -22.327
329.377     69.438   -23.476
334.168     69.449   -24.833
339.028     69.445   -26.418
343.959     69.418   -28.214
348.962     69.347   -30.017
354.038     69.241   -31.760
359.188     69.110   -33.337
364.412     68.960   -34.664
369.713     68.832   -35.693
375.090     68.748   -36.640
380.546     68.678   -37.771
386.081     68.614   -38.956
391.697     68.542   -40.155
397.394     68.482   -41.530
403.175     68.414   -43.028
409.039     68.300   -44.626
414.989     68.166   -46.221
421.025     67.967   -47.606
427.149     67.746   -48.451
433.362     67.587   -48.865
439.665     67.493   -49.207
446.060     67.480   -49.692
452.548     67.512   -50.826
459.131     67.457   -52.426
465.809     67.356   -53.846
472.584     67.216   -55.368
479.458     66.982   -56.182
486.432     66.833   -56.175
493.507     66.813   -56.312
500.686     66.830   -56.670
507.968     66.939   -57.379
515.357     67.041   -59.049
522.853     67.048   -61.224
530.458     66.988   -63.186
538.174     66.876   -65.181
546.002     66.716   -66.711
553.943     66.649   -67.671
562.001     66.648   -69.468
570.175     66.555   -71.741
578.469     66.416   -74.153
586.883     66.128   -76.925
595.419     65.737   -78.645
604.080     65.352   -79.426
612.866     65.005   -79.017
621.780     64.932   -78.198
630.824     64.992   -78.296
640.000     65.017   -78.996
649.309     65.066   -80.434
658.753     65.017   -82.378
668.335     64.928   -84.132
678.056     64.772   -86.128
687.919     64.640   -87.989
697.925     64.490   -90.125
708.077     64.266   -92.327
718.376     64.039   -94.057
728.825     63.872   -96.006
739.426     63.558   -98.332
750.181     63.157   -99.985
761.093     62.777  -100.926
772.163     62.463  -102.177
783.394     61.954  -103.122
794.789     61.450  -102.686
806.349     61.105  -101.588
818.078     60.827   -99.862
829.977     60.838   -98.290
842.050     60.988   -98.296
854.298     60.948   -99.245
866.724     60.961  -100.264
879.330     60.986  -101.881
892.120     60.758  -103.876
905.097     60.484  -104.714
918.262     60.223  -104.485
931.618     60.015  -103.545
945.169     59.926  -102.860
958.917     59.839  -102.262
972.864     59.891  -101.585
987.015     59.973  -101.862
1001.37     60.004  -101.970
1015.94     60.159  -101.869
1030.71     60.306  -102.612
1045.71     60.453  -104.371
1060.92     60.484  -106.656
1076.35     60.362  -108.490
1092.00     60.119  -109.868
1107.89     59.962  -109.543
1124.00     60.033  -109.108
1140.35     60.070  -110.249
1156.94     60.216  -111.533
1173.77     60.274  -113.583
1190.84     60.162  -114.908
1208.16     60.368  -115.983
1225.73     60.351  -118.540
1243.56     60.347  -119.561
1261.65     60.628  -121.228
1280.00     60.666  -123.969
1298.62     60.726  -126.209
1317.51     60.712  -129.371
1336.67     60.391  -131.447
1356.11     60.251  -132.299
1375.84     60.249  -134.146
1395.85     60.199  -135.664
1416.15     60.310  -137.990
1436.75     60.245  -141.359
1457.65     60.027  -143.814
1478.85     59.846  -145.691
1500.36     59.805  -146.486
1522.19     59.895  -147.607
1544.33     60.057  -149.720
1566.79     60.128  -152.010
1589.58     60.090  -154.607
1612.70     59.959  -156.781
1636.16     60.004  -157.775
1659.95     60.193  -159.385
1684.10     60.580  -161.775
1708.60     60.874  -165.671
1733.45     61.045  -170.381
1758.66     61.055  -175.374
1784.24     60.936   179.381
1810.19     60.745   174.653
1836.52     60.604   170.739
1863.24     60.498   166.838
1890.34     60.543   163.609
1917.83     60.536   160.885
1945.73     60.569   157.966
1974.03     60.638   155.435
2002.74     60.634   153.071
2031.87     60.749   150.464
2061.43     60.907   147.797
2091.41     61.008   144.820
2121.83     61.238   140.986
2152.69     61.364   136.375
2184.01     61.368   130.968
2215.77     61.309   126.119
2248.00     61.154   121.685
2280.70     61.036   117.246
2313.87     60.890   113.104
2347.53     60.810   109.299
2381.68     60.876   105.197
2416.32     60.946   100.739
2451.46     60.972    96.201
2487.12     60.982    91.690
2523.30     60.996    87.122
2560.00     60.975    82.556
2597.24     60.978    78.035
2635.01     61.068    73.814
2673.34     61.224    69.238
2712.23     61.351    63.772
2751.68     61.434    58.135
2791.70     61.461    51.869
2832.31     61.404    45.466
2873.50     61.267    39.341
2915.30     61.153    33.525
2957.70     61.005    27.903
3000.72     60.801    22.458
3044.37     60.579    17.495
3088.65     60.340    12.344
3133.58     60.053     7.678
3179.16     59.778     3.516
3225.40     59.456    -0.731
3272.31     59.136    -4.264
3319.91     58.820    -7.861
3368.20     58.450   -11.288
3417.19     58.060   -14.460
3466.89     57.720   -17.478
3517.32     57.444   -19.667
3568.48     57.180   -21.618
3620.39     56.994   -23.376
3673.05     57.073   -25.063
3726.47     57.113   -27.641
3780.67     57.161   -31.358
3835.67     57.178   -35.577
3891.46     57.015   -38.952
3948.06     56.769   -41.726
4005.49     56.577   -43.037
4063.75     56.635   -43.687
4122.86     56.940   -45.273
4182.82     57.397   -47.487
4243.66     57.877   -51.154
4305.39     58.181   -56.202
4368.01     58.343   -60.710
4431.55     58.510   -65.200
4496.01     58.688   -69.636
4561.40     58.938   -74.210
4627.75     59.230   -79.718
4695.06     59.414   -86.196
4763.35     59.369   -93.024
4832.64     59.201  -100.165
4902.93     58.721  -106.635
4974.24     58.139  -110.888
5046.60     57.705  -113.334
5120.00     57.553  -114.945
5194.47     57.692  -117.526
5270.03     57.863  -121.524
5346.68     57.919  -125.982
5424.45     57.970  -130.625
5503.35     57.988  -135.369
5583.40     57.998  -140.861
5664.61     57.912  -146.893
5747.01     57.679  -153.246
5830.60     57.227  -159.440
5915.41     56.537  -164.923
6001.45     55.680  -169.144
6088.74     54.749  -171.608
6177.30     54.062  -172.450
6267.15     53.607  -173.212
6358.31     53.243  -173.623
6450.80     53.204  -174.231
6544.62     53.231  -175.201
6639.82     53.258  -178.028
6736.40     53.304   178.626
6834.38     53.298   175.222
6933.79     53.263   171.130
7034.64     53.029   166.709
7136.96     52.785   163.712
7240.77     52.610   161.192
7346.09     52.260   158.334
7452.94     52.018   157.683
7561.35     51.991   156.510
7671.33     51.963   152.507
7782.91     51.863   149.228
7896.12     51.913   145.325
8010.97     52.189   139.421
8127.49     52.244   134.402
8245.71     52.315   129.881
8365.65     52.462   125.194
8487.33     52.509   120.478
8610.78     52.611   115.896
8736.03     52.819   109.868
8863.09     52.913   102.246
8992.01     52.743    93.188
9122.80     52.276    83.969
9255.50     51.505    75.911
9390.12     50.252    70.290
9526.70     48.525    68.409
9665.27     46.990    70.830
9805.86     45.800    74.899
9948.49     45.434    81.798
10093.2     46.503    88.555
10240.0     48.197    90.839
10388.9     49.816    88.608
10540.1     51.140    81.289
10693.4     51.811    68.272
10848.9     51.944    53.860
11006.7     51.596    38.885
11166.8     50.669    26.600
11329.2     49.324    18.889
11494.0     47.895    15.833
11661.2     46.618    16.156
11830.8     46.058    16.640
12002.9     46.069    14.776
12177.5     46.147    10.255
12354.6     46.033     4.664
12534.3     45.609     0.323
12716.6     44.979    -2.902
12901.6     44.704    -4.920
13089.2     44.727    -9.519
13279.6     44.531   -17.261
13472.8     43.916   -25.680
13668.8     42.733   -28.826
13867.6     41.270   -26.685
14069.3     40.324   -21.529
14273.9     40.130   -15.065
14481.5     41.053   -12.647
14692.2     42.041   -17.078
14905.9     42.458   -23.988
15122.7     42.458   -31.450
15342.7     42.085   -35.983
15565.8     41.669   -38.263
15792.2     41.599   -39.873
16021.9     41.797   -42.731
16255.0     42.116   -46.407
16491.4     42.696   -49.698
16731.3     43.663   -53.717
16974.7     44.868   -59.569
17221.6     46.039   -68.119
17472.1     46.896   -80.974
17726.2     47.176   -97.370
17984.0     46.815  -113.037
18245.6     45.934  -128.217
18511.0     44.684  -140.728
18780.2     43.214  -150.401
19053.4     41.702  -155.874
19330.5     40.520  -156.086
19611.7     40.051  -154.143
19897.0     40.269  -151.733
20186.4     40.982  -152.404
20480.0     41.647  -158.995
20777.9     41.790  -167.560
21080.1     41.711  -178.136
21386.7     41.517   171.206
21697.8     41.278   162.571
22013.4     41.558   153.463
22333.6     42.037   141.591
22658.4     42.271   127.473
22988.0     42.225   110.624
23322.4     41.309    91.339
