Freq[Hz]     dBSPL  Phase[Deg]
Freq[Hz]     dBSPL  Phase[Deg]
5.00000    -14.334   -16.771
5.07273    -13.992   -16.850
5.14651    -13.622   -16.934
5.22137    -13.211   -17.024
5.29732    -12.785   -17.117
5.37437    -12.341   -17.213
5.45254    -11.896   -17.311
5.53185    -11.451   -17.411
5.61231    -11.007   -17.512
5.69394    -10.562   -17.614
5.77676    -10.118   -17.718
5.86079     -9.673   -17.823
5.94604     -9.228   -17.930
6.03252     -8.784   -18.039
6.12027     -8.339   -18.149
6.20929     -7.894   -18.260
6.29961     -7.449   -18.373
6.39124     -7.005   -18.488
6.48420     -6.560   -18.605
6.57851     -6.115   -18.723
6.67420     -5.670   -18.842
6.77128     -5.225   -18.964
6.86977     -4.780   -19.087
6.96969     -4.335   -19.213
7.07107     -3.890   -19.340
7.17392     -3.445   -19.468
7.27827     -3.000   -19.599
7.38413     -2.555   -19.732
7.49154     -2.110   -19.867
7.60050     -1.665   -20.004
7.71105     -1.219   -20.142
7.82321     -0.774   -20.283
7.93701     -0.329   -20.426
8.05245      0.117   -20.572
8.16958      0.562   -20.719
8.28841      1.008   -20.869
8.40896      1.453   -21.021
8.53128      1.899   -21.175
8.65537      2.344   -21.332
8.78126      2.790   -21.491
8.90899      3.236   -21.652
9.03857      3.682   -21.816
9.17004      4.127   -21.983
9.30342      4.573   -22.152
9.43874      5.019   -22.323
9.57603      5.465   -22.497
9.71532      5.911   -22.674
9.85663      6.357   -22.853
10.0000      6.803   -23.035
10.1455      7.250   -23.220
10.2930      7.696   -23.407
10.4427      8.142   -23.597
10.5946      8.589   -23.790
10.7487      9.035   -23.986
10.9051      9.482   -24.185
11.0637      9.928   -24.387
11.2246     10.375   -24.592
11.3879     10.822   -24.801
11.5535     11.269   -25.012
11.7216     11.716   -25.227
11.8921     12.163   -25.445
12.0650     12.610   -25.666
12.2405     13.057   -25.891
12.4186     13.505   -26.120
12.5992     13.952   -26.352
12.7825     14.400   -26.587
12.9684     14.848   -26.826
13.1570     15.295   -27.070
13.3484     15.743   -27.316
13.5426     16.191   -27.567
13.7395     16.640   -27.822
13.9394     17.088   -28.080
14.1421     17.536   -28.343
14.3478     17.985   -28.610
14.5565     18.433   -28.881
14.7683     18.882   -29.156
14.9831     19.331   -29.436
15.2010     19.780   -29.720
15.4221     20.230   -30.008
15.6464     20.679   -30.302
15.8740     21.128   -30.600
16.1049     21.578   -30.903
16.3392     22.028   -31.210
16.5768     22.478   -31.523
16.8179     22.928   -31.841
17.0626     23.379   -32.164
17.3107     23.830   -32.493
17.5625     24.280   -32.827
17.8180     24.731   -33.166
18.0771     25.182   -33.511
18.3401     25.634   -33.862
18.6068     26.085   -34.219
18.8775     26.537   -34.581
19.1521     26.989   -34.950
19.4306     27.442   -35.324
19.7133     27.901   -35.695
20.0000     28.376   -36.047
20.2909     28.881   -36.408
20.5860     29.421   -36.845
20.8855     29.970   -37.532
21.1893     30.501   -38.531
21.4975     30.985   -39.648
21.8102     31.398   -40.637
22.1274     31.758   -41.298
22.4492     32.118   -41.523
22.7758     32.515   -41.392
23.1071     32.964   -41.181
23.4432     33.468   -41.158
23.7841     33.995   -41.411
24.1301     34.512   -41.930
24.4811     35.006   -42.646
24.8372     35.479   -43.491
25.1984     35.940   -44.386
25.5649     36.405   -45.240
25.9368     36.883   -46.057
26.3141     37.378   -46.854
26.6968     37.881   -47.692
27.0851     38.381   -48.629
27.4791     38.869   -49.632
27.8788     39.339   -50.675
28.2843     39.794   -51.733
28.6957     40.244   -52.744
29.1131     40.697   -53.707
29.5365     41.165   -54.657
29.9661     41.649   -55.612
30.4020     42.144   -56.619
30.8442     42.641   -57.702
31.2929     43.128   -58.847
31.7480     43.606   -60.046
32.2098     44.079   -61.270
32.6783     44.547   -62.473
33.1536     45.030   -63.692
33.6359     45.530   -64.988
34.1251     46.042   -66.292
34.6215     46.540   -67.733
35.1250     47.011   -69.249
35.6359     47.461   -70.579
36.1543     47.901   -71.850
36.6802     48.350   -73.148
37.2137     48.828   -74.426
37.7550     49.332   -75.821
38.3041     49.846   -77.378
38.8613     50.348   -79.024
39.4265     50.836   -80.630
40.0000     51.314   -82.184
40.5818     51.790   -83.747
41.1721     52.271   -85.362
41.7710     52.757   -87.039
42.3785     53.242   -88.788
42.9949     53.727   -90.603
43.6203     54.213   -92.426
44.2548     54.696   -94.276
44.8985     55.177   -96.157
45.5515     55.662   -98.041
46.2141     56.145   -99.980
46.8863     56.623  -101.976
47.5683     57.095  -103.989
48.2602     57.562  -106.046
48.9621     58.031  -108.162
49.6743     58.500  -110.326
50.3968     58.971  -112.573
51.1299     59.444  -114.891
51.8736     59.912  -117.251
52.6281     60.374  -119.625
53.3936     60.829  -121.994
54.1702     61.280  -124.420
54.9581     61.725  -126.950
55.7575     62.164  -129.555
56.5685     62.595  -132.253
57.3914     63.016  -135.008
58.2261     63.429  -137.755
59.0730     63.836  -140.518
59.9323     64.237  -143.321
60.8040     64.633  -146.163
61.6884     65.023  -149.072
62.5857     65.404  -152.019
63.4960     65.773  -155.030
64.4196     66.124  -158.105
65.3566     66.458  -161.207
66.3073     66.778  -164.341
67.2717     67.089  -167.471
68.2502     67.394  -170.574
69.2429     67.694  -173.692
70.2501     67.985  -176.836
71.2719     68.261   179.967
72.3086     68.517   176.722
73.3603     68.754   173.471
74.4274     68.976   170.245
75.5099     69.187   167.066
76.6083     69.388   163.930
77.7226     69.582   160.815
78.8531     69.764   157.713
80.0000     69.928   154.627
81.1636     70.076   151.551
82.3442     70.213   148.518
83.5419     70.340   145.539
84.7570     70.459   142.585
85.9899     70.570   139.676
87.2406     70.673   136.828
88.5096     70.764   134.018
89.7970     70.847   131.252
91.1031     70.922   128.548
92.4282     70.991   125.892
93.7726     71.055   123.274
95.1366     71.113   120.699
96.5204     71.163   118.162
97.9243     71.207   115.665
99.3486     71.243   113.213
100.794     71.271   110.805
102.260     71.294   108.457
103.747     71.309   106.170
105.256     71.320   103.948
106.787     71.330   101.796
108.340     71.340    99.687
109.916     71.351    97.628
111.515     71.361    95.600
113.137     71.370    93.614
114.783     71.375    91.656
116.452     71.378    89.719
118.146     71.378    87.796
119.865     71.372    85.910
121.608     71.361    84.036
123.377     71.345    82.229
125.171     71.321    80.503
126.992     71.300    78.848
128.839     71.282    77.243
130.713     71.270    75.695
132.615     71.263    74.136
134.543     71.256    72.603
136.500     71.250    71.078
138.486     71.241    69.549
140.500     71.227    68.053
142.544     71.214    66.577
144.617     71.199    65.119
146.721     71.185    63.692
148.855     71.171    62.264
151.020     71.154    60.862
153.217     71.133    59.476
155.445     71.110    58.141
157.706     71.089    56.851
160.000     71.069    55.574
162.327     71.051    54.358
164.688     71.037    53.162
167.084     71.024    51.969
169.514     71.015    50.809
171.980     71.011    49.640
174.481     71.010    48.437
177.019     71.006    47.208
179.594     70.998    45.994
182.206     70.986    44.796
184.856     70.973    43.616
187.545     70.961    42.453
190.273     70.948    41.292
193.041     70.936    40.143
195.849     70.922    39.005
198.697     70.907    37.888
201.587     70.897    36.772
204.520     70.883    35.598
207.494     70.855    34.423
210.512     70.816    33.314
213.574     70.770    32.343
216.681     70.736    31.511
219.833     70.729    30.697
223.030     70.737    29.799
226.274     70.750    28.733
229.565     70.747    27.539
232.905     70.716    26.341
236.292     70.670    25.271
239.729     70.622    24.352
243.216     70.585    23.547
246.754     70.563    22.742
250.343     70.542    21.921
253.984     70.525    21.116
257.678     70.519    20.314
261.426     70.518    19.473
265.229     70.525    18.562
269.087     70.524    17.528
273.001     70.509    16.433
276.972     70.464    15.328
281.000     70.400    14.405
285.088     70.345    13.702
289.234     70.315    13.093
293.441     70.313    12.471
297.709     70.331    11.736
302.040     70.347    10.813
306.433     70.355     9.831
310.890     70.347     8.730
315.412     70.309     7.621
320.000     70.258     6.673
324.655     70.205     5.760
329.377     70.142     4.962
334.168     70.100     4.332
339.028     70.080     3.619
343.959     70.059     2.849
348.962     70.045     2.024
354.038     70.023     1.113
359.188     69.978     0.153
364.412     69.925    -0.664
369.713     69.877    -1.494
375.090     69.818    -2.333
380.546     69.753    -3.026
386.081     69.700    -3.722
391.697     69.638    -4.317
397.394     69.586    -4.898
403.175     69.527    -5.530
409.039     69.452    -5.913
414.989     69.409    -6.189
421.025     69.402    -6.400
427.149     69.417    -6.723
433.362     69.464    -7.215
439.665     69.494    -8.071
446.060     69.472    -9.127
452.548     69.416    -9.901
459.131     69.359   -10.508
465.809     69.313   -11.020
472.584     69.296   -11.382
479.458     69.306   -11.966
486.432     69.300   -12.816
493.507     69.233   -13.587
500.686     69.161   -13.984
507.968     69.119   -14.198
515.357     69.092   -14.291
522.853     69.103   -14.243
530.458     69.199   -14.362
538.174     69.296   -14.959
546.002     69.402   -15.821
553.943     69.491   -17.116
562.001     69.507   -18.621
570.175     69.454   -20.054
578.469     69.321   -21.117
586.883     69.181   -21.467
595.419     69.106   -21.423
604.080     69.087   -21.443
612.866     69.164   -21.739
621.780     69.204   -22.564
630.824     69.206   -23.356
640.000     69.213   -24.047
649.309     69.191   -24.552
658.753     69.238   -24.982
668.335     69.318   -25.794
678.056     69.363   -27.005
687.919     69.367   -28.299
697.925     69.296   -29.290
708.077     69.238   -29.674
718.376     69.307   -29.904
728.825     69.399   -31.216
739.426     69.303   -32.682
750.181     69.221   -33.033
761.093     69.215   -33.398
772.163     69.230   -33.745
783.394     69.301   -34.136
794.789     69.394   -34.965
806.349     69.473   -35.960
818.078     69.572   -37.134
829.977     69.632   -38.709
842.050     69.637   -40.300
854.298     69.628   -41.591
866.724     69.616   -42.864
879.330     69.574   -44.217
892.120     69.540   -45.160
905.097     69.538   -46.118
918.262     69.540   -47.230
931.618     69.553   -48.230
945.169     69.602   -49.367
958.917     69.632   -50.682
972.864     69.687   -52.084
987.015     69.749   -53.806
1001.37     69.765   -55.538
1015.94     69.804   -57.259
1030.71     69.854   -59.227
1045.71     69.825   -61.298
1060.92     69.785   -63.187
1076.35     69.746   -65.338
1092.00     69.624   -67.447
1107.89     69.513   -69.290
1124.00     69.435   -71.280
1140.35     69.282   -73.758
1156.94     68.908   -75.604
1173.77     68.612   -75.841
1190.84     68.519   -75.542
1208.16     68.531   -75.890
1225.73     68.631   -76.552
1243.56     68.750   -78.099
1261.65     68.732   -80.117
1280.00     68.717   -82.053
1298.62     68.604   -84.010
1317.51     68.469   -85.409
1336.67     68.439   -86.653
1356.11     68.388   -88.403
1375.84     68.315   -89.911
1395.85     68.281   -91.800
1416.15     68.123   -93.920
1436.75     67.948   -95.197
1457.65     67.821   -96.397
1478.85     67.713   -97.415
1500.36     67.685   -98.143
1522.19     67.715   -99.506
1544.33     67.735  -100.758
1566.79     67.791  -102.240
1589.58     67.845  -104.044
1612.70     67.904  -105.828
1636.16     67.974  -108.336
1659.95     67.986  -110.924
1684.10     67.951  -113.932
1708.60     67.847  -116.652
1733.45     67.707  -118.577
1758.66     67.624  -120.326
1784.24     67.586  -121.565
1810.19     67.606  -122.938
1836.52     67.706  -124.815
1863.24     67.797  -126.790
1890.34     67.898  -129.522
1917.83     68.016  -132.643
1945.73     68.078  -135.696
1974.03     68.146  -139.213
2002.74     68.153  -142.968
2031.87     68.063  -146.659
2061.43     67.910  -150.312
2091.41     67.700  -153.930
2121.83     67.425  -156.763
2152.69     67.218  -159.107
2184.01     67.078  -161.047
2215.77     67.043  -162.855
2248.00     67.042  -165.214
2280.70     67.050  -168.197
2313.87     67.042  -171.578
2347.53     66.951  -175.110
2381.68     66.833  -178.129
2416.32     66.761   179.262
2451.46     66.659   177.255
2487.12     66.624   175.642
2523.30     66.664   174.077
2560.00     66.789   172.121
2597.24     66.985   169.441
2635.01     67.162   166.115
2673.34     67.288   162.100
2712.23     67.310   157.903
2751.68     67.196   153.886
2791.70     67.082   150.349
2832.31     66.969   147.324
2873.50     66.895   144.554
2915.30     66.917   142.039
2957.70     66.972   139.346
3000.72     67.001   136.375
3044.37     67.016   133.326
3088.65     66.954   130.100
3133.58     66.828   127.199
3179.16     66.673   124.809
3225.40     66.549   122.875
3272.31     66.504   121.630
3319.91     66.575   120.451
3368.20     66.769   118.915
3417.19     67.006   116.785
3466.89     67.189   114.014
3517.32     67.324   110.854
3568.48     67.383   107.592
3620.39     67.386   104.569
3673.05     67.393   101.878
3726.47     67.401    99.244
3780.67     67.425    96.652
3835.67     67.419    93.974
3891.46     67.364    91.444
3948.06     67.305    89.242
4005.49     67.271    87.442
4063.75     67.299    85.589
4122.86     67.351    83.380
4182.82     67.377    80.952
4243.66     67.341    78.561
4305.39     67.251    76.672
4368.01     67.210    75.537
4431.55     67.269    74.529
4496.01     67.404    73.212
4561.40     67.592    71.274
4627.75     67.745    68.517
4695.06     67.804    65.467
4763.35     67.798    62.272
4832.64     67.698    59.011
4902.93     67.484    56.327
4974.24     67.220    54.417
5046.60     67.004    53.624
5120.00     66.973    53.261
5194.47     67.070    51.957
5270.03     67.127    49.810
5346.68     67.088    47.520
5424.45     67.001    45.499
5503.35     66.909    43.776
5583.40     66.843    42.098
5664.61     66.780    40.189
5747.01     66.683    38.123
5830.60     66.528    36.144
5915.41     66.344    34.599
6001.45     66.130    33.435
6088.74     65.940    32.574
6177.30     65.738    31.902
6267.15     65.501    31.396
6358.31     65.256    31.440
6450.80     65.059    32.131
6544.62     64.962    33.039
6639.82     64.996    33.906
6736.40     65.064    34.301
6834.38     65.144    34.438
6933.79     65.289    34.480
7034.64     65.452    34.018
7136.96     65.587    33.238
7240.77     65.781    32.543
7346.09     65.981    31.464
7452.94     66.154    29.895
7561.35     66.324    28.190
7671.33     66.432    26.029
7782.91     66.452    23.640
7896.12     66.384    21.481
8010.97     66.217    19.601
8127.49     66.009    18.301
8245.71     65.810    17.644
8365.65     65.678    17.243
8487.33     65.617    16.762
8610.78     65.567    16.110
8736.03     65.526    15.464
8863.09     65.510    14.705
8992.01     65.465    13.711
9122.80     65.406    13.094
9255.50     65.421    12.661
9390.12     65.499    11.923
9526.70     65.608    10.763
9665.27     65.673     9.257
9805.86     65.711     7.774
9948.49     65.736     6.201
10093.2     65.727     4.739
10240.0     65.760     3.175
10388.9     65.770     1.019
10540.1     65.702    -1.439
10693.4     65.543    -4.153
10848.9     65.239    -6.532
11006.7     64.839    -8.342
11166.8     64.333    -9.077
11329.2     63.863    -8.435
11494.0     63.526    -7.017
11661.2     63.370    -5.154
11830.8     63.410    -3.655
12002.9     63.601    -2.890
12177.5     63.846    -3.512
12354.6     64.019    -5.455
12534.3     64.025    -8.201
12716.6     63.811   -11.047
12901.6     63.451   -12.887
13089.2     63.125   -14.058
13279.6     62.736   -14.780
13472.8     62.442   -14.897
13668.8     62.172   -15.341
13867.6     61.888   -15.505
14069.3     61.625   -15.736
14273.9     61.302   -15.600
14481.5     61.005   -14.737
14692.2     60.751   -13.402
14905.9     60.581   -11.751
15122.7     60.532   -10.133
15342.7     60.531    -8.983
15565.8     60.605    -8.167
15792.2     60.669    -7.784
16021.9     60.741    -7.642
16255.0     60.824    -7.607
16491.4     60.876    -7.948
16731.3     60.928    -8.468
16974.7     60.894    -8.955
17221.6     60.845    -9.351
17472.1     60.761    -9.505
17726.2     60.640    -9.289
17984.0     60.514    -8.855
18245.6     60.403    -7.862
18511.0     60.346    -6.492
18780.2     60.416    -4.979
19053.4     60.662    -3.749
19330.5     61.060    -3.348
19611.7     61.525    -4.329
19897.0     61.980    -6.546
20186.4     62.339    -9.698
20480.0     62.591   -13.270
20777.9     62.762   -16.841
21080.1     62.886   -20.353
21386.7     62.986   -23.987
21697.8     63.051   -27.834
22013.4     63.074   -32.030
22333.6     63.043   -36.741
22658.4     62.901   -42.113
22988.0     62.561   -48.349
23322.4     61.813   -54.960
