Freq[Hz]     dBSPL  Phase[Deg]
5.00000      2.453    23.472
5.07273      2.338    24.436
5.14651      2.133    26.026
5.22137      1.677    29.363
5.29732      1.221    32.700
5.37437      0.765    36.037
5.45254      0.308    39.374
5.53185      0.049    44.981
5.61231     -0.003    52.991
5.69394     -0.055    61.001
5.77676     -0.107    69.010
5.86079     -0.146    76.967
5.94604      0.569    81.834
6.03252      1.284    86.701
6.12027      1.998    91.567
6.20929      2.713    96.434
6.29961      3.191    97.906
6.39124      3.615    98.626
6.48420      4.040    99.346
6.57851      4.465   100.065
6.67420      4.355   100.157
6.77128      4.159   100.147
6.86977      3.963   100.137
6.96969      3.676   100.589
7.07107      2.708   104.556
7.17392      1.739   108.523
7.27827      0.770   112.491
7.38413      0.305   122.716
7.49154      0.229   137.776
7.60050      0.153   152.835
7.71105      0.366   166.158
7.82321      1.847   171.851
7.93701      3.328   177.544
8.05245      4.810  -176.763
8.16958      5.495  -177.634
8.28841      6.151  -178.751
8.40896      6.807  -179.868
8.53128      6.484   178.320
8.65537      6.036   176.419
8.78126      5.587   174.517
8.90899      3.412  -178.328
9.03857      1.124  -170.581
9.17004     -0.679  -160.544
9.30342      1.381  -132.282
9.43874      3.442  -104.021
9.57603      5.714   -87.382
9.71532      8.309   -88.502
9.85663     10.904   -89.623
10.0000     12.370   -94.844
10.1455     13.521  -101.207
10.2930     14.417  -108.204
10.4427     14.605  -116.969
10.5946     14.792  -125.734
10.7487     14.219  -137.333
10.9051     13.494  -149.497
11.0637     12.353  -166.211
11.2246     10.771   172.264
11.3879      9.567   147.952
11.5535      9.737   113.489
11.7216      9.932    79.237
11.8921     11.602    57.396
12.0650     13.271    35.555
12.2405     13.920    21.001
12.4186     14.436     7.387
12.5992     13.441    -3.307
12.7825     12.109   -13.353
12.9684      5.679     2.868
13.1570     -1.938    25.206
13.3484      4.855    63.489
13.5426     13.989   104.360
13.7395     17.710    97.789
13.9394     21.014    89.225
14.1421     22.726    79.392
14.3478     24.088    69.533
14.5565     24.698    59.620
14.7683     24.707    50.127
14.9831     24.252    40.958
15.2010     22.557    34.530
15.4221     20.250    32.245
15.6464     16.188    46.102
15.8740     15.771    73.163
16.1049     18.265   110.767
16.3392     21.509   111.018
16.5768     23.944   106.513
16.8179     25.165    97.130
17.0626     24.969    85.404
17.3107     23.770    72.379
17.5625     21.322    57.837
17.8180     13.189    25.860
18.0771     12.179   -44.477
18.3401     18.135  -140.656
18.6068     22.352  -158.619
18.8775     24.157  -173.278
19.1521     24.094   175.082
19.4306     22.193   168.736
19.7133     16.959  -168.013
20.0000     20.474  -124.889
20.2909     25.995  -103.901
20.5860     30.480  -111.335
20.8855     33.173  -124.401
21.1893     34.556  -139.461
21.4975     35.056  -155.284
21.8102     34.716  -171.545
22.1274     33.437   172.025
22.4492     30.930   155.884
22.7758     26.327   141.813
23.1071     18.830   145.841
23.4432     15.197  -106.488
23.7841     22.844  -109.056
24.1301     24.951  -123.308
24.4811     24.371  -138.814
24.8372     21.217  -151.719
25.1984     13.735  -144.132
25.5649     13.873   -76.896
25.9368     18.709   -62.703
26.3141     20.951   -74.847
26.6968     20.574   -90.985
27.0851     18.130  -105.972
27.4791     13.765  -112.039
27.8788     10.512   -97.426
28.2843     12.305   -93.417
28.6957     15.093  -115.015
29.1131     17.333  -142.635
29.5365     18.618  -166.127
29.9661     18.556   179.079
30.4020     17.349   179.693
30.8442     17.875  -160.100
31.2929     21.012  -147.214
31.7480     23.913  -147.346
32.2098     25.712  -151.722
32.6783     26.654  -154.848
33.1536     27.401  -155.734
33.6359     28.261  -156.259
34.1251     29.108  -158.394
34.6215     29.684  -161.359
35.1250     30.076  -162.999
35.6359     30.745  -162.482
36.1543     31.927  -162.705
36.6802     33.307  -165.966
37.2137     34.467  -171.202
37.7550     35.389  -175.781
38.3041     36.330  -178.618
38.8613     37.436   178.797
39.4265     38.536   175.416
40.0000     39.471   172.324
40.5818     40.394   170.549
41.1721     41.520   168.757
41.7710     42.671   165.390
42.3785     43.534   161.256
42.9949     44.247   158.715
43.6203     45.182   157.525
44.2548     46.425   154.976
44.8985     47.575   150.378
45.5515     48.506   145.720
46.2141     49.408   142.118
46.8863     50.449   138.793
47.5683     51.546   134.863
48.2602     52.615   130.654
48.9621     53.677   126.293
49.6743     54.702   121.682
50.3968     55.669   117.192
51.1299     56.655   112.968
51.8736     57.689   108.440
52.6281     58.692   103.391
53.3936     59.642    98.256
54.1702     60.592    93.102
54.9581     61.549    87.596
55.7575     62.468    81.776
56.5685     63.355    75.810
57.3914     64.217    69.665
58.2261     65.040    63.394
59.0730     65.834    57.078
59.9323     66.601    50.668
60.8040     67.337    44.199
61.6884     68.049    37.696
62.5857     68.736    31.052
63.4960     69.375    24.319
64.4196     69.978    17.650
65.3566     70.558    11.002
66.3073     71.113     4.307
67.2717     71.626    -2.393
68.2502     72.100    -8.999
69.2429     72.548   -15.469
70.2501     72.978   -21.888
71.2719     73.382   -28.306
72.3086     73.765   -34.752
73.3603     74.110   -41.231
74.4274     74.420   -47.612
75.5099     74.707   -53.888
76.6083     74.966   -60.008
77.7226     75.212   -65.890
78.8531     75.452   -71.672
80.0000     75.671   -77.353
81.1636     75.878   -82.979
82.3442     76.059   -88.636
83.5419     76.217   -94.229
84.7570     76.368   -99.778
85.9899     76.500  -105.265
87.2406     76.628  -110.496
88.5096     76.772  -115.615
89.7970     76.894  -120.720
91.1031     76.991  -125.711
92.4282     77.056  -130.737
93.7726     77.087  -135.492
95.1366     77.149  -140.193
96.5204     77.190  -144.754
97.9243     77.280  -149.029
99.3486     77.363  -153.402
100.794     77.443  -157.360
102.260     77.549  -161.574
103.747     77.613  -165.771
105.256     77.676  -170.059
106.787     77.738  -174.270
108.340     77.772  -178.644
109.916     77.794   177.452
111.515     77.824   173.506
113.137     77.859   169.693
114.783     77.893   165.816
116.452     77.926   161.927
118.146     77.951   158.111
119.865     77.968   154.322
121.608     77.986   150.552
123.377     77.997   146.752
125.171     78.006   142.936
126.992     78.006   139.202
128.839     77.998   135.490
130.713     77.972   131.755
132.615     77.920   128.155
134.543     77.865   124.619
136.500     77.833   121.113
138.486     77.793   117.908
140.500     77.717   114.551
142.544     77.617   111.039
144.617     77.524   107.900
146.721     77.461   105.139
148.855     77.521   102.364
151.020     77.408    98.268
153.217     77.290    95.662
155.445     77.148    92.761
157.706     77.006    89.818
160.000     76.828    87.098
162.327     76.724    84.940
164.688     76.650    82.671
167.084     76.610    80.263
169.514     76.546    76.819
171.980     76.308    74.105
174.481     76.164    72.490
177.019     76.065    70.649
179.594     75.984    68.635
182.206     75.896    66.603
184.856     75.839    64.789
187.545     75.808    62.812
190.273     75.780    60.625
193.041     75.736    58.283
195.849     75.671    55.992
198.697     75.594    53.500
201.587     75.451    51.103
204.520     75.272    49.139
207.494     75.148    47.517
210.512     75.077    46.055
213.574     75.024    43.770
216.681     74.838    41.957
219.833     74.736    40.565
223.030     74.632    39.013
226.274     74.511    37.810
229.565     74.472    36.553
232.905     74.438    35.210
236.292     74.432    33.870
239.729     74.414    32.225
243.216     74.417    30.446
246.754     74.360    28.730
250.343     74.295    27.346
253.984     74.243    25.699
257.678     74.232    23.835
261.426     74.216    21.909
265.229     74.162    19.588
269.087     74.003    17.533
273.001     73.847    15.745
276.972     73.603    13.472
281.000     73.197    13.338
285.088     73.143    14.193
289.234     73.285    14.007
293.441     73.356    12.595
297.709     73.381    10.931
302.040     73.378     9.191
306.433     73.208     7.526
310.890     73.212     6.862
315.412     73.199     4.957
320.000     73.092     3.788
324.655     72.936     2.655
329.377     72.958     2.438
334.168     72.974     0.570
339.028     72.910    -0.419
343.959     72.913    -2.218
348.962     72.803    -3.686
354.038     72.644    -4.765
359.188     72.586    -5.376
364.412     72.567    -6.488
369.713     72.549    -7.823
375.090     72.436    -8.559
380.546     72.401    -9.392
386.081     72.413   -10.641
391.697     72.338   -11.683
397.394     72.282   -12.814
403.175     72.244   -13.987
409.039     72.140   -14.621
414.989     72.174   -15.278
421.025     72.225   -16.648
427.149     72.144   -18.358
433.362     72.088   -18.874
439.665     72.179   -20.626
446.060     72.027   -22.371
452.548     71.986   -24.335
459.131     71.633   -26.507
465.809     71.190   -27.511
472.584     70.670   -25.395
479.458     70.793   -22.936
486.432     71.006   -23.382
493.507     70.957   -24.323
500.686     70.906   -24.685
507.968     70.834   -24.857
515.357     70.805   -24.992
522.853     70.792   -25.358
530.458     70.727   -25.653
538.174     70.657   -25.939
546.002     70.613   -25.959
553.943     70.578   -26.018
562.001     70.540   -26.017
570.175     70.526   -25.907
578.469     70.508   -25.903
586.883     70.504   -25.841
595.419     70.533   -25.663
604.080     70.550   -25.581
612.866     70.602   -25.399
621.780     70.674   -25.437
630.824     70.743   -25.534
640.000     70.838   -25.637
649.309     70.934   -25.977
658.753     71.033   -26.359
668.335     71.128   -26.862
678.056     71.221   -27.490
687.919     71.315   -28.161
697.925     71.395   -28.887
708.077     71.472   -29.637
718.376     71.547   -30.357
728.825     71.624   -31.072
739.426     71.708   -31.719
750.181     71.805   -32.377
761.093     71.923   -33.047
772.163     72.060   -33.712
783.394     72.221   -34.510
794.789     72.409   -35.443
806.349     72.615   -36.570
818.078     72.830   -37.906
829.977     73.048   -39.522
842.050     73.259   -41.458
854.298     73.456   -43.692
866.724     73.627   -46.177
879.330     73.768   -48.946
892.120     73.871   -51.930
905.097     73.922   -55.078
918.262     73.918   -58.350
931.618     73.862   -61.729
945.169     73.755   -65.052
958.917     73.583   -68.304
972.864     73.358   -71.402
987.015     73.081   -74.270
1001.37     72.751   -76.865
1015.94     72.380   -78.988
1030.71     71.981   -80.732
1045.71     71.574   -81.963
1060.92     71.160   -82.664
1076.35     70.779   -82.849
1092.00     70.444   -82.499
1107.89     70.155   -81.690
1124.00     69.951   -80.599
1140.35     69.842   -79.215
1156.94     69.832   -77.699
1173.77     69.919   -76.225
1190.84     70.107   -75.060
1208.16     70.389   -74.275
1225.73     70.744   -74.050
1243.56     71.145   -74.469
1261.65     71.569   -75.590
1280.00     71.985   -77.354
1298.62     72.368   -79.624
1317.51     72.707   -82.402
1336.67     72.995   -85.532
1356.11     73.228   -88.825
1375.84     73.414   -92.211
1395.85     73.559   -95.585
1416.15     73.678   -98.912
1436.75     73.791  -102.194
1457.65     73.909  -105.523
1478.85     74.040  -108.973
1500.36     74.173  -112.633
1522.19     74.300  -116.621
1544.33     74.403  -120.991
1566.79     74.460  -125.669
1589.58     74.450  -130.656
1612.70     74.365  -135.804
1636.16     74.185  -140.998
1659.95     73.915  -146.138
1684.10     73.539  -151.025
1708.60     73.063  -155.536
1733.45     72.495  -159.385
1758.66     71.837  -162.371
1784.24     71.130  -164.094
1810.19     70.445  -164.295
1836.52     69.886  -162.911
1863.24     69.592  -160.432
1890.34     69.615  -157.849
1917.83     69.891  -156.357
1945.73     70.293  -156.304
1974.03     70.678  -157.561
2002.74     70.978  -159.541
2031.87     71.199  -161.635
2061.43     71.394  -163.457
2091.41     71.639  -165.042
2121.83     71.979  -166.876
2152.69     72.382  -169.452
2184.01     72.769  -173.096
2215.77     73.053  -177.592
2248.00     73.171   177.596
2280.70     73.130   173.108
2313.87     72.992   169.474
2347.53     72.857   166.817
2381.68     72.824   164.768
2416.32     72.907   162.599
2451.46     73.032   159.798
2487.12     73.101   156.459
2523.30     73.056   153.091
2560.00     72.931   150.336
2597.24     72.826   148.497
2635.01     72.842   147.171
2673.34     72.999   145.529
2712.23     73.200   142.961
2751.68     73.322   139.560
2791.70     73.293   136.170
2832.31     73.149   133.644
2873.50     73.051   132.306
2915.30     73.136   131.419
2957.70     73.395   129.682
3000.72     73.635   126.572
3044.37     73.675   122.825
3088.65     73.510   119.844
3133.58     73.342   118.582
3179.16     73.410   118.302
3225.40     73.724   117.104
3272.31     74.044   114.207
3319.91     74.180   110.475
3368.20     74.157   107.203
3417.19     74.118   104.722
3466.89     74.135   102.432
3517.32     74.154    99.957
3568.48     74.139    97.628
3620.39     74.143    95.545
3673.05     74.180    93.243
3726.47     74.153    90.676
3780.67     74.043    88.717
3835.67     74.008    87.738
3891.46     74.161    86.541
3948.06     74.346    84.187
4005.49     74.403    81.358
4063.75     74.396    78.958
4122.86     74.419    76.618
4182.82     74.391    74.018
4243.66     74.273    71.891
4305.39     74.234    70.574
4368.01     74.314    68.775
4431.55     74.293    66.202
4496.01     74.128    64.492
4561.40     74.111    64.160
4627.75     74.370    63.055
4695.06     74.597    59.953
4763.35     74.563    56.352
4832.64     74.384    53.881
4902.93     74.304    52.252
4974.24     74.309    50.136
5046.60     74.232    47.574
5120.00     74.100    45.342
5194.47     73.979    43.059
5270.03     73.728    40.592
5346.68     73.350    39.585
5424.45     73.214    39.971
5503.35     73.276    38.713
5583.40     73.013    36.750
5664.61     72.747    37.954
5747.01     73.080    38.371
5830.60     73.139    35.099
5915.41     72.819    34.930
6001.45     73.175    35.211
6088.74     73.251    30.753
6177.30     72.762    29.860
6267.15     72.949    30.279
6358.31     72.911    27.021
6450.80     72.661    26.781
6544.62     72.831    24.999
6639.82     72.434    21.894
6736.40     72.066    22.781
6834.38     72.040    22.570
6933.79     71.846    22.437
7034.64     71.867    22.942
7136.96     71.926    21.734
7240.77     71.695    20.255
7346.09     71.416    21.194
7452.94     71.455    22.085
7561.35     71.462    22.808
7671.33     71.737    22.788
7782.91     71.678    21.439
7896.12     71.839    22.523
8010.97     72.042    19.748
8127.49     71.849    19.850
8245.71     72.202    18.305
8365.65     71.887    16.807
8487.33     72.234    16.563
8610.78     71.974    13.376
8736.03     72.120    13.617
8863.09     71.946     9.447
8992.01     71.734     8.942
9122.80     71.258     5.653
9255.50     70.853     8.026
9390.12     70.528     6.883
9526.70     70.329    10.216
9665.27     70.192    10.314
9805.86     70.312    13.552
9948.49     70.541    12.927
10093.2     70.726    12.783
10240.0     70.721    10.705
10388.9     70.668     9.880
10540.1     70.307     7.787
10693.4     69.994     8.862
10848.9     69.475    10.646
11006.7     69.630    14.264
11166.8     69.807    16.774
11329.2     70.243    16.984
11494.0     70.420    17.126
11661.2     70.724    16.342
11830.8     70.888    15.194
12002.9     70.746    14.013
12177.5     70.972    13.357
12354.6     70.875    13.258
12534.3     70.645    12.827
12716.6     70.784    14.185
12901.6     71.196    15.731
13089.2     71.481    14.380
13279.6     71.620    12.216
13472.8     71.823    12.347
13668.8     72.264    10.462
13867.6     72.246     5.486
14069.3     71.856     3.778
14273.9     71.890     5.418
14481.5     72.036     5.491
14692.2     72.484     4.268
14905.9     73.084    -0.312
15122.7     73.137    -7.115
15342.7     72.594   -11.108
15565.8     72.264   -13.561
15792.2     71.984   -17.581
16021.9     71.425   -21.324
16255.0     70.603   -22.277
16491.4     70.114   -19.634
16731.3     70.152   -18.977
16974.7     70.088   -19.659
17221.6     70.241   -19.801
17472.1     70.705   -22.611
17726.2     70.967   -29.317
17984.0     70.529   -37.109
18245.6     69.935   -43.211
18511.0     68.927   -49.827
18780.2     67.486   -54.408
19053.4     65.782   -52.758
19330.5     64.870   -46.894
19611.7     64.695   -41.433
19897.0     65.311   -36.371
20186.4     66.912   -38.987
20480.0     68.010   -57.214
20777.9     65.741   -75.080
21080.1     63.897   -76.336
21386.7     62.696   -79.563
21697.8     61.669   -82.898
22013.4     60.735   -87.940
22333.6     59.435   -95.483
22658.4     57.525  -102.437
22988.0     55.394  -104.657
23322.4     54.071  -106.423
23661.6     53.184  -114.413
24005.8     51.946  -132.116
24355.0     48.735  -158.134
24709.2     44.705   174.004
25068.6     41.017   141.317
25433.2     40.790   111.562
25803.2     42.093    84.095
26178.5     43.232    67.776
26559.3     43.306    55.303
26945.6     43.721    51.870
27337.5     44.946    45.352
27735.2     44.523    31.163
28138.6     41.305    24.623
28547.9     41.071    41.512
28963.1     41.995    40.743
29384.4     42.018    33.058
29811.8     40.194    25.122
30245.4     37.814    33.017
30685.3     38.248    37.908
31131.7     38.836    41.838
31584.5     45.064     7.679
32043.9     38.772   -86.881
32510.0     33.452  -145.828
32982.8     32.727   175.670
33462.6     33.358   157.963
33949.3     33.929   136.997
34443.1     32.496   134.539
34944.1     32.916   145.452
35452.4     34.150   139.096
35968.0     32.529   102.997
36491.2     25.908   138.671
37022.0     26.965   154.505
37560.5     26.839   168.260
38106.8     28.153   178.806
38661.1     27.218  -172.702
39223.4     27.676  -158.533
39793.9     29.736  -157.686
