Freq[Hz]     dBSPL  Phase[Deg]
5.00000      3.245    23.631
5.07273      3.130    24.601
5.14651      2.925    26.196
5.22137      2.469    29.538
5.29732      2.013    32.880
5.37437      1.557    36.222
5.45254      1.101    39.564
5.53185      0.842    45.176
5.61231      0.790    53.189
5.69394      0.739    61.203
5.77676      0.687    69.217
5.86079      0.648    77.177
5.94604      1.363    82.047
6.03252      2.078    86.917
6.12027      2.792    91.786
6.20929      3.507    96.656
6.29961      3.985    98.130
6.39124      4.411    98.852
6.48420      4.836    99.574
6.57851      5.262   100.295
6.67420      5.153   100.388
6.77128      4.957   100.379
6.86977      4.762   100.371
6.96969      4.477   100.824
7.07107      3.510   104.792
7.17392      2.543   108.761
7.27827      1.575   112.729
7.38413      1.112   122.957
7.49154      1.038   138.019
7.60050      0.964   153.081
7.71105      1.179   166.407
7.82321      2.663   172.105
7.93701      4.147   177.803
8.05245      5.632  -176.499
8.16958      6.321  -177.362
8.28841      6.980  -178.470
8.40896      7.640  -179.578
8.53128      7.321   178.625
8.65537      6.876   176.738
8.78126      6.431   174.852
8.90899      4.261  -177.972
9.03857      1.978  -170.202
9.17004      0.179  -160.141
9.30342      2.244  -131.848
9.43874      4.309  -103.554
9.57603      6.586   -86.880
9.71532      9.186   -87.957
9.85663     11.786   -89.035
10.0000     13.256   -94.204
10.1455     14.411  -100.513
10.2930     15.312  -107.453
10.4427     15.502  -116.151
10.5946     15.692  -124.850
10.7487     15.121  -136.372
10.9051     14.399  -148.458
11.0637     13.258  -165.089
11.2246     11.676   173.473
11.3879     10.470   149.252
11.5535     10.637   114.886
11.7216     10.830    80.730
11.8921     12.494    58.991
12.0650     14.158    37.251
12.2405     14.797    22.799
12.4186     15.305     9.287
12.5992     14.297    -1.308
12.7825     12.952   -11.256
12.9684      6.506     5.055
13.1570     -1.129    27.480
13.3484      5.644    65.836
13.5426     14.756   106.778
13.7395     18.454   100.254
13.9394     21.733    91.733
14.1421     23.418    81.916
14.3478     24.752    72.062
14.5565     25.332    62.127
14.7683     25.311    52.588
14.9831     24.826    43.355
15.2010     23.100    36.821
15.4221     20.764    34.414
15.6464     16.675    48.109
15.8740     16.232    74.979
16.1049     18.700   112.371
16.3392     21.926   112.362
16.5768     24.346   107.580
16.8179     25.555    97.893
17.0626     25.358    85.835
17.3107     24.162    72.466
17.5625     21.724    57.569
17.8180     13.612    25.232
18.0771     12.632   -45.458
18.3401     18.624  -141.980
18.6068     22.890  -160.257
18.8775     24.753  -175.191
19.1521     24.755   172.936
19.4306     22.928   166.408
19.7133     17.773  -170.442
20.0000     21.374  -127.339
20.2909     26.983  -106.293
20.5860     31.557  -113.586
20.8855     34.339  -126.419
21.1893     35.808  -141.136
21.4975     36.387  -156.522
21.8102     36.119  -172.262
22.1274     34.901   171.910
22.4492     32.443   156.440
22.7758     27.875   143.102
23.1071     20.397   147.909
23.4432     16.765  -103.610
23.7841     24.395  -105.356
24.1301     26.464  -118.795
24.4811     25.828  -133.519
24.8372     22.599  -145.693
25.1984     15.024  -137.447
25.5649     15.054   -69.646
25.9368     19.766   -55.005
26.3141     21.875   -66.834
26.6968     21.356   -82.810
27.0851     18.768   -97.800
27.4791     14.260  -104.047
27.8788     10.871   -89.794
28.2843     12.543   -86.307
28.6957     15.231  -108.568
29.1131     17.396  -136.958
29.5365     18.633  -161.286
29.9661     18.554  -176.934
30.4020     17.360  -177.139
30.8442     17.929  -157.653
31.2929     21.130  -145.358
31.7480     24.108  -145.925
32.2098     25.995  -150.567
32.6783     27.023  -153.767
33.1536     27.850  -154.569
33.6359     28.776  -154.882
34.1251     29.674  -156.700
34.6215     30.278  -159.286
35.1250     30.681  -160.528
35.6359     31.339  -159.635
36.1543     32.493  -159.538
36.6802     33.833  -162.563
37.2137     34.943  -167.674
37.7550     35.815  -172.235
38.3041     36.710  -175.168
38.8613     37.779  -177.930
39.4265     38.855   178.453
40.0000     39.783   175.111
40.5818     40.712   173.107
41.1721     41.856   171.146
41.7710     43.031   167.686
42.3785     43.919   163.552
42.9949     44.654   161.088
43.6203     45.602   160.034
44.2548     46.846   157.653
44.8985     47.986   153.219
45.5515     48.898   148.693
46.2141     49.773   145.168
46.8863     50.785   141.854
47.5683     51.855   137.868
48.2602     52.904   133.557
48.9621     53.955   129.072
49.6743     54.975   124.345
50.3968     55.945   119.770
51.1299     56.937   115.507
51.8736     57.975   110.987
52.6281     58.979   105.980
53.3936     59.922   100.901
54.1702     60.861    95.792
54.9581     61.800    90.301
55.7575     62.701    84.453
56.5685     63.573    78.420
57.3914     64.423    72.183
58.2261     65.241    65.819
59.0730     66.035    59.430
59.9323     66.806    52.982
60.8040     67.545    46.515
61.6884     68.256    40.046
62.5857     68.936    33.447
63.4960     69.562    26.749
64.4196     70.147    20.085
65.3566     70.710    13.403
66.3073     71.247     6.641
67.2717     71.750    -0.150
68.2502     72.215    -6.849
69.2429     72.661   -13.398
70.2501     73.090   -19.870
71.2719     73.493   -26.315
72.3086     73.870   -32.769
73.3603     74.207   -39.254
74.4274     74.504   -45.656
75.5099     74.778   -51.978
76.6083     75.023   -58.175
77.7226     75.260   -64.157
78.8531     75.494   -70.047
80.0000     75.712   -75.824
81.1636     75.921   -81.518
82.3442     76.103   -87.209
83.5419     76.258   -92.817
84.7570     76.401   -98.383
85.9899     76.522  -103.914
87.2406     76.639  -109.228
88.5096     76.776  -114.460
89.7970     76.898  -119.677
91.1031     77.003  -124.741
92.4282     77.073  -129.786
93.7726     77.104  -134.518
95.1366     77.156  -139.195
96.5204     77.181  -143.777
97.9243     77.254  -148.138
99.3486     77.327  -152.644
100.794     77.407  -156.728
102.260     77.519  -161.012
103.747     77.585  -165.215
105.256     77.640  -169.485
106.787     77.685  -173.719
108.340     77.698  -178.196
109.916     77.706   177.733
111.515     77.734   173.613
113.137     77.774   169.662
114.783     77.813   165.691
116.452     77.849   161.721
118.146     77.875   157.821
119.865     77.897   153.963
121.608     77.917   150.157
123.377     77.924   146.339
125.171     77.921   142.469
126.992     77.910   138.618
128.839     77.899   134.760
130.713     77.877   130.910
132.615     77.827   127.240
134.543     77.767   123.629
136.500     77.730   120.010
138.486     77.691   116.690
140.500     77.620   113.240
142.544     77.519   109.662
144.617     77.419   106.446
146.721     77.348   103.563
148.855     77.407   100.631
151.020     77.297    96.392
153.217     77.184    93.672
155.445     77.044    90.678
157.706     76.902    87.645
160.000     76.719    84.797
162.327     76.615    82.474
164.688     76.547    80.059
167.084     76.514    77.540
169.514     76.453    73.998
171.980     76.213    71.152
174.481     76.072    69.400
177.019     75.977    67.443
179.594     75.895    65.307
182.206     75.807    63.101
184.856     75.756    61.101
187.545     75.733    58.980
190.273     75.714    56.670
193.041     75.674    54.223
195.849     75.605    51.807
198.697     75.523    49.112
201.587     75.388    46.485
204.520     75.220    44.355
207.494     75.101    42.590
210.512     75.032    40.928
213.574     74.987    38.447
216.681     74.804    36.478
219.833     74.701    34.869
223.030     74.606    33.033
226.274     74.505    31.621
229.565     74.473    30.220
232.905     74.438    28.672
236.292     74.436    27.081
239.729     74.426    25.186
243.216     74.435    23.147
246.754     74.387    21.165
250.343     74.333    19.527
253.984     74.286    17.644
257.678     74.273    15.477
261.426     74.267    13.206
265.229     74.220    10.592
269.087     74.065     8.187
273.001     73.918     6.087
276.972     73.672     3.482
281.000     73.273     2.933
285.088     73.227     3.446
289.234     73.364     2.876
293.441     73.432     1.024
297.709     73.462    -1.096
302.040     73.462    -3.194
306.433     73.276    -5.270
310.890     73.265    -6.427
315.412     73.234    -8.847
320.000     73.114   -10.544
324.655     72.937   -12.168
329.377     72.936   -12.916
334.168     72.923   -15.312
339.028     72.821   -16.848
343.959     72.785   -19.174
348.962     72.626   -21.121
354.038     72.403   -22.708
359.188     72.280   -23.875
364.412     72.193   -25.524
369.713     72.102   -27.368
375.090     71.921   -28.527
380.546     71.798   -29.677
386.081     71.713   -31.318
391.697     71.559   -32.666
397.394     71.398   -33.935
403.175     71.263   -35.342
409.039     71.065   -36.079
414.989     71.013   -36.793
421.025     70.968   -38.125
427.149     70.806   -39.824
433.362     70.671   -40.230
439.665     70.692   -41.929
446.060     70.474   -43.489
452.548     70.380   -45.293
459.131     69.962   -47.295
465.809     69.473   -48.197
472.584     68.906   -45.923
479.458     68.996   -43.427
486.432     69.179   -43.789
493.507     69.110   -44.604
500.686     69.017   -44.864
507.968     68.917   -45.036
515.357     68.855   -45.140
522.853     68.803   -45.537
530.458     68.707   -45.873
538.174     68.623   -46.132
546.002     68.535   -45.980
553.943     68.451   -45.917
562.001     68.370   -45.843
570.175     68.331   -45.417
578.469     68.255   -45.158
586.883     68.240   -44.736
595.419     68.250   -44.197
604.080     68.274   -43.694
612.866     68.348   -43.050
621.780     68.464   -42.642
630.824     68.591   -42.313
640.000     68.755   -42.105
649.309     68.936   -42.274
658.753     69.151   -42.505
668.335     69.355   -42.969
678.056     69.569   -43.759
687.919     69.789   -44.699
697.925     69.996   -45.860
708.077     70.193   -47.171
718.376     70.383   -48.651
728.825     70.562   -50.242
739.426     70.734   -51.946
750.181     70.901   -53.771
761.093     71.060   -55.653
772.163     71.216   -57.681
783.394     71.361   -59.759
794.789     71.508   -62.045
806.349     71.646   -64.451
818.078     71.778   -66.980
829.977     71.887   -69.702
842.050     71.984   -72.622
854.298     72.053   -75.714
866.724     72.094   -78.944
879.330     72.104   -82.391
892.120     72.068   -85.912
905.097     71.985   -89.520
918.262     71.847   -93.206
931.618     71.659   -96.868
945.169     71.414  -100.394
958.917     71.109  -103.772
972.864     70.760  -106.859
987.015     70.363  -109.591
1001.37     69.922  -111.876
1015.94     69.470  -113.666
1030.71     69.042  -114.893
1045.71     68.640  -115.546
1060.92     68.291  -115.816
1076.35     68.034  -115.863
1092.00     67.848  -115.799
1107.89     67.733  -115.896
1124.00     67.662  -116.260
1140.35     67.620  -116.924
1156.94     67.586  -117.775
1173.77     67.543  -118.730
1190.84     67.490  -119.691
1208.16     67.441  -120.596
1225.73     67.417  -121.358
1243.56     67.441  -122.069
1261.65     67.526  -122.779
1280.00     67.672  -123.773
1298.62     67.866  -125.124
1317.51     68.100  -127.030
1336.67     68.326  -129.467
1356.11     68.526  -132.439
1375.84     68.693  -135.740
1395.85     68.793  -139.275
1416.15     68.850  -142.908
1436.75     68.867  -146.485
1457.65     68.868  -150.012
1478.85     68.878  -153.492
1500.36     68.904  -156.973
1522.19     68.952  -160.677
1544.33     69.007  -164.766
1566.79     69.048  -169.352
1589.58     69.047  -174.507
1612.70     68.964   179.983
1636.16     68.764   174.060
1659.95     68.430   168.004
1684.10     67.930   162.070
1708.60     67.243   156.634
1733.45     66.374   152.176
1758.66     65.340   149.392
1784.24     64.227   149.289
1810.19     63.273   152.413
1836.52     62.798   158.237
1863.24     63.038   164.078
1890.34     63.799   167.269
1917.83     64.689   166.925
1945.73     65.466   163.691
1974.03     66.001   158.843
2002.74     66.266   153.452
2031.87     66.298   148.421
2061.43     66.212   144.425
2091.41     66.118   141.714
2121.83     66.157   139.688
2152.69     66.365   137.530
2184.01     66.660   134.341
2215.77     66.914   130.130
2248.00     67.032   125.361
2280.70     67.007   120.829
2313.87     66.897   117.072
2347.53     66.830   114.136
2381.68     66.879   111.512
2416.32     67.025   108.453
2451.46     67.168   104.670
2487.12     67.227   100.503
2523.30     67.204    96.626
2560.00     67.178    93.314
2597.24     67.248    90.242
2635.01     67.404    86.658
2673.34     67.550    82.001
2712.23     67.541    76.558
2751.68     67.328    71.186
2791.70     66.948    67.020
2832.31     66.540    64.594
2873.50     66.307    63.261
2915.30     66.306    61.815
2957.70     66.411    59.229
3000.72     66.429    55.652
3044.37     66.269    51.937
3088.65     65.962    49.188
3133.58     65.684    47.885
3179.16     65.598    47.366
3225.40     65.694    46.371
3272.31     65.815    44.469
3319.91     65.871    42.323
3368.20     65.944    40.587
3417.19     66.124    38.752
3466.89     66.351    35.908
3517.32     66.439    32.265
3568.48     66.370    29.127
3620.39     66.314    27.038
3673.05     66.410    25.049
3726.47     66.527    22.185
3780.67     66.518    19.153
3835.67     66.469    16.929
3891.46     66.535    15.073
3948.06     66.662    12.695
4005.49     66.746    10.128
4063.75     66.873     7.818
4122.86     67.103     4.824
4182.82     67.236     0.627
4243.66     67.125    -3.406
4305.39     66.987    -5.805
4368.01     67.073    -7.865
4431.55     67.216   -11.343
4496.01     67.153   -15.308
4561.40     67.012   -17.998
4627.75     67.060   -20.174
4695.06     67.184   -23.802
4763.35     67.107   -28.136
4832.64     66.899   -31.488
4902.93     66.788   -34.469
4974.24     66.608   -38.151
5046.60     66.225   -40.883
5120.00     65.972   -41.726
5194.47     65.987   -42.873
5270.03     66.014   -45.137
5346.68     65.995   -47.604
5424.45     65.966   -50.117
5503.35     65.949   -52.825
5583.40     65.850   -56.013
5664.61     65.631   -58.091
5747.01     65.698   -59.642
5830.60     65.726   -63.909
5915.41     65.263   -66.680
6001.45     65.249   -66.547
6088.74     65.484   -70.032
6177.30     65.271   -74.136
6267.15     65.056   -77.290
6358.31     64.590   -79.989
6450.80     64.421   -79.505
6544.62     64.686   -82.660
6639.82     64.333   -87.842
6736.40     63.643   -90.796
6834.38     62.737   -90.066
6933.79     62.629   -84.751
7034.64     63.134   -84.756
7136.96     63.225   -85.629
7240.77     63.528   -86.580
7346.09     63.686   -88.241
7452.94     64.006   -89.995
7561.35     64.308   -93.086
7671.33     64.617   -98.363
7782.91     64.123  -104.916
7896.12     63.582  -105.366
8010.97     63.375  -107.457
8127.49     63.054  -105.243
8245.71     63.730  -107.324
8365.65     63.303  -111.193
8487.33     63.469  -111.400
8610.78     63.251  -114.101
8736.03     63.566  -115.009
8863.09     63.115  -119.533
8992.01     63.168  -116.336
9122.80     63.606  -120.116
9255.50     63.719  -122.846
9390.12     63.374  -127.130
9526.70     63.436  -125.366
9665.27     63.736  -129.502
9805.86     63.675  -131.312
9948.49     63.785  -133.616
10093.2     64.115  -136.204
10240.0     64.066  -141.591
10388.9     63.939  -144.302
10540.1     63.695  -146.848
10693.4     63.913  -148.260
10848.9     63.874  -151.693
11006.7     63.969  -154.602
11166.8     64.013  -157.355
11329.2     64.128  -160.800
11494.0     64.178  -164.592
11661.2     64.283  -168.943
11830.8     64.187  -173.740
12002.9     63.780  -177.534
12177.5     63.814   179.775
12354.6     63.787   177.015
12534.3     63.468   173.131
12716.6     63.515   171.127
12901.6     63.827   169.531
13089.2     64.088   163.719
13279.6     63.917   158.150
13472.8     63.908   154.218
13668.8     63.782   150.540
13867.6     63.747   147.146
14069.3     64.191   143.163
14273.9     64.645   136.143
14481.5     64.462   127.294
14692.2     64.089   119.531
14905.9     63.544   112.139
15122.7     63.187   108.136
15342.7     62.975   102.371
15565.8     62.586    95.021
15792.2     61.973    87.916
16021.9     61.284    81.356
16255.0     60.431    75.797
16491.4     59.401    73.317
16731.3     59.115    72.257
16974.7     58.861    67.447
17221.6     58.693    63.774
17472.1     58.920    57.209
17726.2     59.155    44.892
17984.0     57.959    27.371
18245.6     55.941    18.370
18511.0     54.157    10.892
18780.2     52.086     2.216
19053.4     48.729    -3.165
19330.5     44.818    11.515
19611.7     45.161    42.368
19897.0     49.862    47.437
20186.4     53.601    22.719
20480.0     54.424   -29.444
20777.9     47.509   -85.023
21080.1     37.312  -114.720
21386.7     31.670   170.747
21697.8     35.363   102.372
22013.4     39.974    84.187
22333.6     42.272    59.991
22658.4     42.201    43.046
22988.0     41.179    30.924
23322.4     40.363    28.272
23661.6     40.957    23.900
24005.8     40.106     7.939
24355.0     37.978     8.511
24709.2     38.597    12.248
25068.6     39.426     1.733
25433.2     39.225   -10.250
25803.2     39.524   -19.008
26178.5     39.636   -42.738
26559.3     37.965   -63.427
26945.6     35.963   -82.120
27337.5     32.886   -89.031
27735.2     34.193   -97.795
28138.6     34.026  -139.058
28547.9     30.179  -173.574
28963.1     26.458   170.938
29384.4     24.696   162.565
29811.8     27.926   162.311
30245.4     31.373   130.013
30685.3     32.341   111.508
31131.7     32.382    85.777
31584.5     32.737    96.464
32043.9     36.126    56.088
32510.0     33.223    32.399
32982.8     30.847    24.705
33462.6     29.171    23.693
33949.3     28.502    23.695
34443.1     28.151    27.055
34944.1     28.425    18.107
35452.4     27.513     0.671
35968.0     25.152  -107.177
36491.2     27.367    65.070
37022.0     26.642    35.386
37560.5     26.560    27.075
38106.8     25.519    21.315
38661.1     26.311    11.181
39223.4     26.313     6.914
39793.9     25.746    -0.651
