Freq[Hz]     dBSPL  Phase[Deg]
5.00000      2.471    23.178
5.07273      2.357    24.127
5.14651      2.154    25.702
5.22137      1.701    29.026
5.29732      1.248    32.350
5.37437      0.794    35.673
5.45254      0.341    38.997
5.53185      0.085    44.593
5.61231      0.036    52.592
5.69394     -0.012    60.592
5.77676     -0.060    68.591
5.86079     -0.096    76.538
5.94604      0.623    81.399
6.03252      1.342    86.261
6.12027      2.061    91.122
6.20929      2.780    95.984
6.29961      3.263    97.457
6.39124      3.693    98.178
6.48420      4.123    98.900
6.57851      4.553    99.621
6.67420      4.449    99.722
6.77128      4.258    99.722
6.86977      4.068    99.722
6.96969      3.787   100.186
7.07107      2.825   104.173
7.17392      1.862   108.161
7.27827      0.900   112.149
7.38413      0.440   122.400
7.49154      0.370   137.492
7.60050      0.300   152.583
7.71105      0.519   165.939
7.82321      2.005   171.675
7.93701      3.492   177.411
8.05245      4.978  -176.853
8.16958      5.668  -177.671
8.28841      6.328  -178.733
8.40896      6.989  -179.796
8.53128      6.669   178.455
8.65537      6.224   176.619
8.78126      5.778   174.782
8.90899      3.605  -177.991
9.03857      1.318  -170.170
9.17004     -0.484  -160.058
9.30342      1.575  -131.716
9.43874      3.634  -103.373
9.57603      5.904   -86.653
9.71532      8.496   -87.688
9.85663     11.088   -88.723
10.0000     12.548   -93.858
10.1455     13.692  -100.136
10.2930     14.582  -107.047
10.4427     14.760  -115.729
10.5946     14.937  -124.410
10.7487     14.353  -135.931
10.9051     13.617  -148.019
11.0637     12.462  -164.662
11.2246     10.864   173.878
11.3879      9.644   149.628
11.5535      9.796   115.215
11.7216      9.974    81.011
11.8921     11.623    59.199
12.0650     13.273    37.387
12.2405     13.899    22.841
12.4186     14.394     9.232
12.5992     13.376    -1.479
12.7825     12.022   -11.547
12.9684      5.569     4.627
13.1570     -2.072    26.913
13.3484      4.698    65.117
13.5426     13.808   105.905
13.7395     17.509    99.221
13.9394     20.793    90.539
14.1421     22.487    80.563
14.3478     23.832    70.553
14.5565     24.427    60.471
14.7683     24.425    50.798
14.9831     23.961    41.439
15.2010     22.260    34.808
15.4221     19.949    32.317
15.6464     15.889    45.962
15.8740     15.477    72.811
16.1049     17.977   110.203
16.3392     21.235   110.249
16.5768     23.686   105.547
16.8179     24.924    95.975
17.0626     24.752    84.082
17.3107     23.579    70.904
17.5625     21.159    56.227
17.8180     13.058    24.149
18.0771     12.081   -46.268
18.3401     18.070  -142.503
18.6068     22.322  -160.485
18.8775     24.163  -175.132
19.1521     24.134   173.267
19.4306     22.268   166.988
19.7133     17.063  -169.657
20.0000     20.607  -126.403
20.2909     26.153  -105.263
20.5860     30.658  -112.526
20.8855     33.367  -125.405
21.1893     34.762  -140.266
21.4975     35.268  -155.886
21.8102     34.928  -171.946
22.1274     33.644   171.816
22.4492     31.128   155.852
22.7758     26.512   141.939
23.1071     18.999   146.099
23.4432     15.345  -106.128
23.7841     22.972  -108.629
24.1301     25.056  -122.849
24.4811     24.456  -138.356
24.8372     21.281  -151.294
25.1984     13.784  -143.767
25.5649     13.909   -76.612
25.9368     18.736   -62.516
26.3141     20.976   -74.763
26.6968     20.600   -91.004
27.0851     18.162  -106.085
27.4791     13.808  -112.229
27.8788     10.567   -97.670
28.2843     12.376   -93.686
28.6957     15.181  -115.279
29.1131     17.437  -142.864
29.5365     18.736  -166.292
29.9661     18.685   179.004
30.4020     17.488   179.726
30.8442     18.016  -159.946
31.2929     21.152  -146.937
31.7480     24.046  -146.954
32.2098     25.836  -151.230
32.6783     26.764  -154.282
33.1536     27.495  -155.122
33.6359     28.339  -155.630
34.1251     29.170  -157.780
34.6215     29.733  -160.786
35.1250     30.116  -162.486
35.6359     30.779  -162.039
36.1543     31.960  -162.333
36.6802     33.342  -165.656
37.2137     34.507  -170.938
37.7550     35.435  -175.543
38.3041     36.383  -178.384
38.8613     37.494   179.045
39.4265     38.597   175.689
40.0000     39.533   172.625
40.5818     40.454   170.870
41.1721     41.576   169.081
41.7710     42.722   165.697
42.3785     43.583   161.523
42.9949     44.298   158.925
43.6203     45.239   157.673
44.2548     46.493   155.071
44.8985     47.661   150.448
45.5515     48.612   145.807
46.2141     49.535   142.276
46.8863     50.596   139.081
47.5683     51.704   135.332
48.2602     52.777   131.340
48.9621     53.831   127.205
49.6743     54.836   122.803
50.3968     55.774   118.473
51.1299     56.724   114.338
51.8736     57.718   109.812
52.6281     58.685   104.678
53.3936     59.606    99.386
54.1702     60.540    94.029
54.9581     61.492    88.311
55.7575     62.419    82.305
56.5685     63.324    76.207
57.3914     64.205    69.998
58.2261     65.048    63.730
59.0730     65.855    57.469
59.9323     66.629    51.138
60.8040     67.363    44.746
61.6884     68.069    38.293
62.5857     68.746    31.663
63.4960     69.377    24.909
64.4196     69.976    18.197
65.3566     70.556    11.503
66.3073     71.114     4.775
67.2717     71.633    -1.933
68.2502     72.109    -8.528
69.2429     72.558   -14.976
70.2501     72.986   -21.375
71.2719     73.388   -27.785
72.3086     73.766   -34.237
73.3603     74.110   -40.729
74.4274     74.419   -47.121
75.5099     74.706   -53.397
76.6083     74.963   -59.510
77.7226     75.206   -65.386
78.8531     75.439   -71.183
80.0000     75.652   -76.905
81.1636     75.856   -82.596
82.3442     76.039   -88.321
83.5419     76.204   -93.961
84.7570     76.364   -99.520
85.9899     76.502  -104.986
87.2406     76.631  -110.190
88.5096     76.771  -115.307
89.7970     76.891  -120.446
91.1031     76.992  -125.488
92.4282     77.066  -130.544
93.7726     77.110  -135.275
95.1366     77.179  -139.897
96.5204     77.217  -144.365
97.9243     77.295  -148.590
99.3486     77.365  -152.987
100.794     77.440  -157.015
102.260     77.553  -161.285
103.747     77.626  -165.468
105.256     77.693  -169.676
106.787     77.745  -173.806
108.340     77.760  -178.171
109.916     77.766   177.839
111.515     77.793   173.762
113.137     77.836   169.851
114.783     77.883   165.947
116.452     77.923   162.075
118.146     77.947   158.269
119.865     77.965   154.465
121.608     77.986   150.675
123.377     78.002   146.879
125.171     78.012   143.086
126.992     78.011   139.369
128.839     78.001   135.658
130.713     77.971   131.916
132.615     77.916   128.309
134.543     77.857   124.751
136.500     77.823   121.202
138.486     77.785   117.957
140.500     77.714   114.583
142.544     77.616   111.082
144.617     77.520   107.947
146.721     77.453   105.162
148.855     77.512   102.344
151.020     77.400    98.210
153.217     77.286    95.583
155.445     77.145    92.671
157.706     77.004    89.718
160.000     76.826    86.978
162.327     76.724    84.799
164.688     76.652    82.524
167.084     76.611    80.121
169.514     76.542    76.663
171.980     76.299    73.893
174.481     76.159    72.214
177.019     76.068    70.350
179.594     75.991    68.366
182.206     75.897    66.349
184.856     75.832    64.476
187.545     75.804    62.429
190.273     75.783    60.229
193.041     75.737    57.895
195.849     75.668    55.560
198.697     75.591    52.996
201.587     75.455    50.558
204.520     75.280    48.591
207.494     75.155    46.973
210.512     75.078    45.469
213.574     75.025    43.093
216.681     74.848    41.245
219.833     74.747    39.866
223.030     74.638    38.245
226.274     74.528    36.972
229.565     74.494    35.757
232.905     74.450    34.381
236.292     74.449    32.952
239.729     74.437    31.338
243.216     74.427    29.523
246.754     74.373    27.694
250.343     74.315    26.296
253.984     74.258    24.625
257.678     74.244    22.702
261.426     74.227    20.700
265.229     74.174    18.314
269.087     74.013    16.180
273.001     73.862    14.319
276.972     73.617    11.998
281.000     73.214    11.801
285.088     73.157    12.633
289.234     73.292    12.348
293.441     73.364    10.850
297.709     73.392     9.106
302.040     73.388     7.346
306.433     73.209     5.609
310.890     73.204     4.878
315.412     73.183     2.836
320.000     73.075     1.611
324.655     72.906     0.374
329.377     72.928     0.040
334.168     72.938    -1.878
339.028     72.861    -2.899
343.959     72.845    -4.798
348.962     72.725    -6.372
354.038     72.554    -7.488
359.188     72.473    -8.167
364.412     72.439    -9.380
369.713     72.407   -10.780
375.090     72.275   -11.521
380.546     72.220   -12.437
386.081     72.216   -13.669
391.697     72.121   -14.768
397.394     72.048   -15.843
403.175     71.986   -17.022
409.039     71.868   -17.654
414.989     71.884   -18.232
421.025     71.919   -19.583
427.149     71.818   -21.219
433.362     71.752   -21.693
439.665     71.826   -23.404
446.060     71.664   -25.061
452.548     71.616   -26.986
459.131     71.250   -29.060
465.809     70.803   -30.013
472.584     70.271   -27.810
479.458     70.393   -25.294
486.432     70.600   -25.683
493.507     70.550   -26.492
500.686     70.483   -26.786
507.968     70.413   -26.944
515.357     70.384   -27.007
522.853     70.366   -27.282
530.458     70.303   -27.531
538.174     70.235   -27.738
546.002     70.195   -27.709
553.943     70.169   -27.673
562.001     70.130   -27.573
570.175     70.124   -27.452
578.469     70.120   -27.379
586.883     70.130   -27.272
595.419     70.169   -27.083
604.080     70.201   -26.982
612.866     70.277   -26.827
621.780     70.364   -26.862
630.824     70.450   -26.999
640.000     70.561   -27.219
649.309     70.675   -27.603
658.753     70.789   -28.135
668.335     70.901   -28.733
678.056     71.005   -29.511
687.919     71.105   -30.377
697.925     71.196   -31.289
708.077     71.273   -32.225
718.376     71.346   -33.221
728.825     71.420   -34.139
739.426     71.489   -35.070
750.181     71.572   -35.987
761.093     71.670   -36.878
772.163     71.777   -37.767
783.394     71.907   -38.767
794.789     72.054   -39.834
806.349     72.215   -41.083
818.078     72.388   -42.530
829.977     72.562   -44.212
842.050     72.730   -46.174
854.298     72.885   -48.362
866.724     73.012   -50.835
879.330     73.114   -53.563
892.120     73.179   -56.471
905.097     73.194   -59.507
918.262     73.153   -62.671
931.618     73.063   -65.902
945.169     72.925   -69.071
958.917     72.723   -72.122
972.864     72.476   -74.980
987.015     72.180   -77.577
1001.37     71.836   -79.838
1015.94     71.460   -81.717
1030.71     71.083   -83.141
1045.71     70.699   -84.106
1060.92     70.327   -84.666
1076.35     70.002   -84.784
1092.00     69.713   -84.542
1107.89     69.471   -84.071
1124.00     69.287   -83.385
1140.35     69.172   -82.508
1156.94     69.118   -81.427
1173.77     69.128   -80.314
1190.84     69.231   -79.302
1208.16     69.420   -78.403
1225.73     69.699   -77.900
1243.56     70.050   -77.918
1261.65     70.449   -78.578
1280.00     70.862   -79.960
1298.62     71.260   -81.962
1317.51     71.621   -84.549
1336.67     71.934   -87.593
1356.11     72.185   -90.899
1375.84     72.375   -94.325
1395.85     72.515   -97.781
1416.15     72.618  -101.170
1436.75     72.709  -104.445
1457.65     72.805  -107.688
1478.85     72.916  -111.030
1500.36     73.046  -114.537
1522.19     73.180  -118.376
1544.33     73.301  -122.599
1566.79     73.372  -127.254
1589.58     73.380  -132.299
1612.70     73.303  -137.547
1636.16     73.122  -142.890
1659.95     72.834  -148.135
1684.10     72.426  -153.068
1708.60     71.921  -157.461
1733.45     71.327  -160.990
1758.66     70.681  -163.523
1784.24     70.041  -164.784
1810.19     69.487  -164.799
1836.52     69.106  -163.867
1863.24     68.939  -162.604
1890.34     68.980  -161.753
1917.83     69.129  -161.814
1945.73     69.313  -162.759
1974.03     69.445  -164.275
2002.74     69.509  -165.900
2031.87     69.546  -167.133
2061.43     69.633  -167.788
2091.41     69.845  -168.257
2121.83     70.210  -169.165
2152.69     70.660  -171.079
2184.01     71.095  -174.170
2215.77     71.429  -178.151
2248.00     71.617   177.571
2280.70     71.686   173.511
2313.87     71.692   170.011
2347.53     71.709   166.962
2381.68     71.777   164.096
2416.32     71.873   160.955
2451.46     71.942   157.451
2487.12     71.930   153.814
2523.30     71.835   150.509
2560.00     71.705   147.867
2597.24     71.625   145.917
2635.01     71.645   144.197
2673.34     71.753   142.149
2712.23     71.881   139.437
2751.68     71.944   136.190
2791.70     71.904   133.020
2832.31     71.777   130.521
2873.50     71.674   128.917
2915.30     71.705   127.705
2957.70     71.879   125.963
3000.72     72.045   123.156
3044.37     72.057   119.764
3088.65     71.889   117.031
3133.58     71.706   115.851
3179.16     71.740   115.619
3225.40     72.008   114.660
3272.31     72.293   112.138
3319.91     72.413   108.888
3368.20     72.406   106.110
3417.19     72.420   103.919
3466.89     72.487   101.571
3517.32     72.502    98.768
3568.48     72.421    96.281
3620.39     72.341    94.509
3673.05     72.333    92.839
3726.47     72.305    90.886
3780.67     72.208    89.490
3835.67     72.211    89.113
3891.46     72.437    88.435
3948.06     72.712    86.294
4005.49     72.848    83.556
4063.75     72.920    81.148
4122.86     73.024    78.549
4182.82     73.028    75.338
4243.66     72.861    72.751
4305.39     72.745    71.526
4368.01     72.806    70.095
4431.55     72.792    67.658
4496.01     72.599    66.080
4561.40     72.559    66.255
4627.75     72.855    65.752
4695.06     73.152    63.010
4763.35     73.197    59.709
4832.64     73.149    57.374
4902.93     73.196    55.153
4974.24     73.212    52.047
5046.60     73.051    49.111
5120.00     72.883    47.107
5194.47     72.783    44.761
5270.03     72.500    42.029
5346.68     72.060    41.185
5424.45     71.908    42.016
5503.35     71.990    41.266
5583.40     71.822    39.868
5664.61     71.744    40.899
5747.01     72.177    40.108
5830.60     72.171    35.467
5915.41     71.611    34.767
6001.45     71.834    36.394
6088.74     72.058    32.599
6177.30     71.635    30.842
6267.15     71.727    30.942
6358.31     71.647    27.602
6450.80     71.272    27.309
6544.62     71.365    26.314
6639.82     70.966    23.742
6736.40     70.617    25.294
6834.38     70.665    25.019
6933.79     70.357    24.771
7034.64     70.313    26.731
7136.96     70.549    26.706
7240.77     70.514    25.065
7346.09     70.269    25.758
7452.94     70.402    27.130
7561.35     70.637    27.645
7671.33     71.066    26.149
7782.91     70.967    23.042
7896.12     70.937    23.051
8010.97     70.926    20.436
8127.49     70.627    21.384
8245.71     71.053    20.360
8365.65     70.682    17.837
8487.33     70.736    18.773
8610.78     70.603    17.527
8736.03     70.877    17.788
8863.09     70.722    14.028
8992.01     70.577    14.360
9122.80     70.312    11.882
9255.50     70.197    13.419
9390.12     69.899    10.966
9526.70     69.711    13.849
9665.27     69.604    13.437
9805.86     69.754    16.121
9948.49     69.975    14.038
10093.2     69.893    14.044
10240.0     69.914    12.312
10388.9     69.694    11.927
10540.1     69.327    12.280
10693.4     69.555    14.671
10848.9     69.388    14.326
11006.7     69.671    16.103
11166.8     69.929    16.204
11329.2     70.237    14.515
11494.0     70.252    12.783
11661.2     70.315    11.332
11830.8     70.290     9.665
12002.9     70.018     7.896
12177.5     69.856     6.759
12354.6     69.542     9.364
12534.3     69.580    10.110
12716.6     69.818    10.339
12901.6     70.192    11.176
13089.2     70.459     9.550
13279.6     70.614     6.255
13472.8     70.707     4.874
13668.8     70.770     1.756
13867.6     70.439    -1.397
14069.3     70.157    -2.081
14273.9     70.291    -1.348
14481.5     70.274    -2.268
14692.2     70.608    -4.189
14905.9     70.880    -9.470
15122.7     70.656   -14.955
15342.7     70.162   -18.215
15565.8     69.761   -21.226
15792.2     69.251   -25.754
16021.9     68.478   -28.620
16255.0     67.587   -28.971
16491.4     66.896   -26.658
16731.3     66.752   -23.324
16974.7     67.086   -23.608
17221.6     67.161   -25.773
17472.1     67.517   -29.191
17726.2     67.603   -37.774
17984.0     66.586   -46.353
18245.6     65.624   -50.233
18511.0     64.439   -55.292
18780.2     62.918   -58.094
19053.4     61.208   -55.804
19330.5     60.273   -49.188
19611.7     60.051   -43.646
19897.0     60.583   -39.421
20186.4     62.015   -39.335
20480.0     63.794   -60.401
20777.9     61.019   -85.477
21080.1     58.027   -89.542
21386.7     55.666   -93.691
21697.8     53.313   -92.479
22013.4     51.775   -94.541
22333.6     49.714  -101.144
22658.4     46.715  -107.636
22988.0     43.714  -116.476
23322.4     38.563  -150.831
23661.6     29.367   120.220
24005.8     26.240    79.393
24355.0     35.142   112.207
24709.2     41.345    91.961
25068.6     43.895    80.421
25433.2     45.764    66.870
25803.2     45.858    56.394
26178.5     46.540    52.715
26559.3     47.322    36.735
26945.6     46.252    19.907
27337.5     44.190     8.195
27735.2     41.784     1.500
28138.6     37.848   -10.746
28547.9     32.830    13.535
28963.1     34.794    32.124
29384.4     34.548    23.936
29811.8     32.573     8.437
30245.4     29.237    11.452
30685.3     27.704     6.828
31131.7     28.401    -0.136
31584.5     38.048   -28.097
32043.9     38.430  -127.369
32510.0     36.299  -151.048
32982.8     36.379  -172.948
33462.6     33.668   172.505
33949.3     33.183   172.978
34443.1     32.765   165.732
34944.1     32.071   162.203
35452.4     31.246   148.380
35968.0     31.080    96.507
36491.2     22.025   150.469
37022.0     24.192    57.447
37560.5     24.864  -108.222
38106.8     28.053  -102.671
38661.1     29.453  -104.535
39223.4     29.629  -108.106
39793.9     29.743  -103.251
