Freq[Hz]     dBSPL  Phase[Deg]
5.00000      1.683    23.038
5.07273      1.569    23.983
5.14651      1.365    25.555
5.22137      0.912    28.873
5.29732      0.458    32.192
5.37437      0.005    35.511
5.45254     -0.449    38.829
5.53185     -0.706    44.419
5.61231     -0.754    52.413
5.69394     -0.803    60.406
5.77676     -0.852    68.400
5.86079     -0.888    76.340
5.94604     -0.169    81.195
6.03252      0.550    86.049
6.12027      1.269    90.904
6.20929      1.988    95.758
6.29961      2.470    97.222
6.39124      2.899    97.935
6.48420      3.329    98.648
6.57851      3.759    99.361
6.67420      3.655    99.452
6.77128      3.464    99.442
6.86977      3.273    99.433
6.96969      2.992    99.886
7.07107      2.029   103.862
7.17392      1.066   107.838
7.27827      0.104   111.814
7.38413     -0.356   122.053
7.49154     -0.426   137.131
7.60050     -0.496   152.208
7.71105     -0.277   165.551
7.82321      1.210   171.271
7.93701      2.697   176.992
8.05245      4.183  -177.288
8.16958      4.874  -178.122
8.28841      5.535  -179.202
8.40896      6.195   179.718
8.53128      5.877   177.951
8.65537      5.432   176.095
8.78126      4.987   174.239
8.90899      2.815  -178.554
9.03857      0.529  -170.753
9.17004     -1.271  -160.662
9.30342      0.790  -132.341
9.43874      2.850  -104.020
9.57603      5.122   -87.321
9.71532      7.717   -88.379
9.85663     10.311   -89.436
10.0000     11.774   -94.594
10.1455     12.922  -100.893
10.2930     13.815  -107.827
10.4427     13.996  -116.530
10.5946     14.178  -125.233
10.7487     13.598  -136.774
10.9051     12.865  -148.882
11.0637     11.715  -165.543
11.2246     10.123   172.979
11.3879      8.908   148.714
11.5535      9.066   114.287
11.7216      9.250    80.071
11.8921     10.906    58.251
12.0650     12.563    36.431
12.2405     13.196    21.884
12.4186     13.698     8.273
12.5992     12.687    -2.433
12.7825     11.340   -12.495
12.9684      4.895     3.692
13.1570     -2.738    25.992
13.3484      4.040    64.218
13.5426     13.158   105.029
13.7395     16.866    98.377
13.9394     20.157    89.729
14.1421     21.857    79.793
14.3478     23.207    69.826
14.5565     23.807    59.792
14.7683     23.809    50.169
14.9831     23.349    40.863
15.2010     21.651    34.289
15.4221     19.342    31.855
15.6464     15.282    45.558
15.8740     14.869    72.464
16.1049     17.368   109.912
16.3392     20.623   110.011
16.5768     23.070   105.358
16.8179     24.304    95.831
17.0626     24.126    83.974
17.3107     22.947    70.828
17.5625     20.520    56.175
17.8180     12.412    24.110
18.0771     11.428   -46.302
18.3401     17.410  -142.539
18.6068     21.656  -160.535
18.8775     23.490  -175.205
19.1521     23.456   173.164
19.4306     21.586   166.848
19.7133     16.379  -169.842
20.0000     19.921  -126.638
20.2909     25.467  -105.549
20.5860     29.975  -112.865
20.8855     32.688  -125.795
21.1893     34.089  -140.703
21.4975     34.602  -156.361
21.8102     34.272  -172.452
22.1274     32.998   171.292
22.4492     30.494   155.324
22.7758     25.890   141.422
23.1071     18.389   145.610
23.4432     14.747  -106.572
23.7841     22.384  -109.009
24.1301     24.477  -123.150
24.4811     23.882  -138.566
24.8372     20.711  -151.403
25.1984     13.212  -143.769
25.5649     13.334   -76.509
25.9368     18.153   -62.313
26.3141     20.381   -74.471
26.6968     19.991   -90.641
27.0851     17.537  -105.674
27.4791     13.163  -111.797
27.8788      9.902   -97.248
28.2843     11.691   -93.307
28.6957     14.478  -114.975
29.1131     16.719  -142.663
29.5365     18.006  -166.221
29.9661     17.947   178.924
30.4020     16.747   179.484
30.8442     17.279  -160.354
31.2929     20.425  -147.507
31.7480     23.333  -147.670
32.2098     25.142  -152.069
32.6783     26.093  -155.211
33.1536     26.849  -156.106
33.6359     27.718  -156.634
34.1251     28.575  -158.767
34.6215     29.159  -161.726
35.1250     29.560  -163.356
35.6359     30.237  -162.826
36.1543     31.428  -163.036
36.6802     32.816  -166.281
37.2137     33.983  -171.502
37.7550     34.912  -176.068
38.3041     35.861  -178.893
38.8613     36.975   178.533
39.4265     38.085   175.164
40.0000     39.031   172.088
40.5818     39.968   170.334
41.1721     41.107   168.577
41.7710     42.271   165.259
42.3785     43.149   161.198
42.9949     43.876   158.753
43.6203     44.823   157.681
44.2548     46.071   155.270
44.8985     47.224   150.821
45.5515     48.151   146.309
46.2141     49.041   142.838
46.8863     50.066   139.612
47.5683     51.142   135.728
48.2602     52.190   131.508
48.9621     53.234   127.072
49.6743     54.247   122.333
50.3968     55.211   117.680
51.1299     56.207   113.285
51.8736     57.260   108.609
52.6281     58.293   103.465
53.3936     59.277    98.308
54.1702     60.263    93.212
54.9581     61.249    87.837
55.7575     62.188    82.197
56.5685     63.084    76.424
57.3914     63.944    70.452
58.2261     64.757    64.304
59.0730     65.540    58.041
59.9323     66.298    51.619
60.8040     67.033    45.097
61.6884     67.755    38.533
62.5857     68.460    31.856
63.4960     69.123    25.148
64.4196     69.748    18.568
65.3566     70.347    12.063
66.3073     70.910     5.537
67.2717     71.425    -1.003
68.2502     71.892    -7.486
69.2429     72.332   -13.881
70.2501     72.756   -20.269
71.2719     73.160   -26.678
72.3086     73.546   -33.113
73.3603     73.898   -39.565
74.4274     74.214   -45.904
75.5099     74.506   -52.132
76.6083     74.769   -58.214
77.7226     75.022   -64.076
78.8531     75.271   -69.846
80.0000     75.506   -75.500
81.1636     75.730   -81.062
82.3442     75.930   -86.603
83.5419     76.099   -92.040
84.7570     76.254   -97.421
85.9899     76.383  -102.762
87.2406     76.504  -107.896
88.5096     76.642  -112.966
89.7970     76.764  -118.047
91.1031     76.869  -123.004
92.4282     76.943  -127.960
93.7726     76.983  -132.609
95.1366     77.048  -137.185
96.5204     77.087  -141.636
97.9243     77.172  -145.835
99.3486     77.253  -150.169
100.794     77.336  -154.097
102.260     77.451  -158.260
103.747     77.523  -162.366
105.256     77.591  -166.532
106.787     77.652  -170.625
108.340     77.679  -174.920
109.916     77.697  -178.794
111.515     77.731   177.270
113.137     77.776   173.493
114.783     77.823   169.705
116.452     77.863   165.943
118.146     77.886   162.246
119.865     77.899   158.528
121.608     77.918   154.780
123.377     77.940   150.999
125.171     77.967   147.262
126.992     77.984   143.692
128.839     77.982   140.191
130.713     77.946   136.632
132.615     77.882   133.122
134.543     77.826   129.619
136.500     77.802   126.173
138.486     77.771   123.078
140.500     77.698   119.871
142.544     77.595   116.493
144.617     77.500   113.441
146.721     77.440   110.768
148.855     77.505   108.111
151.020     77.395   104.149
153.217     77.278   101.683
155.445     77.132    98.918
157.706     76.986    96.075
160.000     76.809    93.424
162.327     76.718    91.376
164.688     76.653    89.303
167.084     76.605    87.122
169.514     76.523    83.810
171.980     76.280    81.142
174.481     76.143    79.607
177.019     76.050    77.904
179.594     75.970    76.051
182.206     75.884    74.190
184.856     75.824    72.553
187.545     75.790    70.721
190.273     75.761    68.672
193.041     75.720    66.499
195.849     75.653    64.404
198.697     75.567    62.088
201.587     75.421    59.829
204.520     75.245    58.030
207.494     75.121    56.618
210.512     75.041    55.350
213.574     74.984    53.217
216.681     74.801    51.575
219.833     74.698    50.392
223.030     74.592    49.043
226.274     74.473    48.069
229.565     74.428    47.055
232.905     74.389    45.912
236.292     74.385    44.788
239.729     74.366    43.424
243.216     74.360    41.891
246.754     74.300    40.385
250.343     74.237    39.254
253.984     74.186    37.903
257.678     74.170    36.322
261.426     74.155    34.662
265.229     74.104    32.672
269.087     73.939    30.929
273.001     73.782    29.410
276.972     73.542    27.419
281.000     73.146    27.613
285.088     73.096    28.864
289.234     73.241    29.009
293.441     73.322    27.948
297.709     73.361    26.617
302.040     73.375    25.279
306.433     73.222    24.004
310.890     73.238    23.842
315.412     73.227    22.218
320.000     73.168    21.375
324.655     73.040    20.728
329.377     73.091    20.872
334.168     73.142    19.416
339.028     73.118    18.786
343.959     73.171    17.357
348.962     73.108    16.265
354.038     72.996    15.482
359.188     73.000    15.183
364.412     73.041    14.416
369.713     73.066    13.397
375.090     72.996    12.760
380.546     73.036    12.004
386.081     73.112    11.013
391.697     73.077    10.030
397.394     73.078     8.955
403.175     73.081     7.768
409.039     73.026     7.113
414.989     73.093     6.438
421.025     73.176     4.955
427.149     73.122     3.134
433.362     73.095     2.534
439.665     73.202     0.651
446.060     73.060    -1.134
452.548     73.030    -3.263
459.131     72.674    -5.465
465.809     72.232    -6.548
472.584     71.692    -4.505
479.458     71.817    -2.048
486.432     71.998    -2.524
493.507     71.941    -3.421
500.686     71.853    -3.670
507.968     71.752    -3.777
515.357     71.687    -3.754
522.853     71.636    -3.934
530.458     71.528    -3.987
538.174     71.426    -3.945
546.002     71.326    -3.600
553.943     71.249    -3.310
562.001     71.174    -2.831
570.175     71.125    -2.192
578.469     71.077    -1.670
586.883     71.051    -0.972
595.419     71.061    -0.241
604.080     71.074     0.460
612.866     71.132     1.236
621.780     71.214     1.801
630.824     71.298     2.291
640.000     71.410     2.742
649.309     71.526     2.928
658.753     71.643     3.003
668.335     71.768     2.999
678.056     71.880     2.833
687.919     71.993     2.627
697.925     72.088     2.316
708.077     72.180     1.995
718.376     72.271     1.670
728.825     72.363     1.399
739.426     72.458     1.170
750.181     72.568     0.988
761.093     72.696     0.786
772.163     72.846     0.583
783.394     73.025     0.293
794.789     73.229    -0.126
806.349     73.453    -0.728
818.078     73.693    -1.561
829.977     73.938    -2.673
842.050     74.180    -4.103
854.298     74.406    -5.860
866.724     74.613    -7.903
879.330     74.792   -10.258
892.120     74.932   -12.868
905.097     75.026   -15.682
918.262     75.062   -18.671
931.618     75.049   -21.791
945.169     74.971   -24.922
958.917     74.834   -28.076
972.864     74.632   -31.110
987.015     74.365   -33.962
1001.37     74.028   -36.590
1015.94     73.632   -38.887
1030.71     73.199   -40.714
1045.71     72.726   -42.013
1060.92     72.230   -42.699
1076.35     71.748   -42.671
1092.00     71.301   -42.059
1107.89     70.921   -40.828
1124.00     70.631   -39.255
1140.35     70.469   -37.449
1156.94     70.424   -35.598
1173.77     70.476   -33.923
1190.84     70.601   -32.669
1208.16     70.788   -31.895
1225.73     71.016   -31.623
1243.56     71.277   -31.810
1261.65     71.545   -32.455
1280.00     71.804   -33.499
1298.62     72.060   -35.043
1317.51     72.305   -37.040
1336.67     72.532   -39.492
1356.11     72.733   -42.391
1375.84     72.900   -45.726
1395.85     73.021   -49.502
1416.15     73.095   -53.638
1436.75     73.101   -58.072
1457.65     73.036   -62.833
1478.85     72.909   -67.915
1500.36     72.717   -73.138
1522.19     72.455   -78.564
1544.33     72.130   -84.227
1566.79     71.750   -90.200
1589.58     71.320   -96.583
1612.70     70.840  -103.492
1636.16     70.293  -111.264
1659.95     69.664  -120.140
1684.10     68.924  -130.507
1708.60     68.050  -142.698
1733.45     67.032  -157.299
1758.66     65.946  -175.077
1784.24     64.901   163.958
1810.19     64.106   139.767
1836.52     63.834   113.860
1863.24     64.065    89.129
1890.34     64.541    67.472
1917.83     65.005    49.231
1945.73     65.295    34.270
1974.03     65.360    22.362
2002.74     65.185    13.303
2031.87     64.907     7.046
2061.43     64.661     3.329
2091.41     64.594     1.386
2121.83     64.767     0.000
2152.69     65.098    -1.959
2184.01     65.448    -4.942
2215.77     65.686    -8.810
2248.00     65.750   -12.932
2280.70     65.635   -16.621
2313.87     65.425   -19.221
2347.53     65.249   -20.585
2381.68     65.253   -21.312
2416.32     65.446   -22.641
2451.46     65.712   -25.550
2487.12     65.843   -30.097
2523.30     65.700   -35.489
2560.00     65.225   -40.431
2597.24     64.498   -43.362
2635.01     63.797   -43.417
2673.34     63.480   -41.485
2712.23     63.640   -40.392
2751.68     63.988   -42.137
2791.70     64.181   -46.294
2832.31     64.056   -50.986
2873.50     63.724   -54.459
2915.30     63.495   -56.172
2957.70     63.646   -57.764
3000.72     64.078   -61.740
3044.37     64.435   -68.773
3088.65     64.477   -77.616
3133.58     64.208   -86.231
3179.16     63.878   -93.458
3225.40     63.778  -100.199
3272.31     63.912  -108.454
3319.91     63.982  -118.904
3368.20     63.802  -129.868
3417.19     63.517  -139.054
3466.89     63.523  -146.583
3517.32     63.933  -155.133
3568.48     64.351  -165.867
3620.39     64.433  -176.818
3673.05     64.335   175.006
3726.47     64.527   169.673
3780.67     65.099   163.961
3835.67     65.658   156.816
3891.46     66.042   150.204
3948.06     66.497   144.821
4005.49     67.060   139.060
4063.75     67.484   132.706
4122.86     67.795   127.576
4182.82     68.267   123.047
4243.66     68.764   117.078
4305.39     68.948   110.844
4368.01     69.018   106.508
4431.55     69.288   102.445
4496.01     69.410    96.881
4561.40     69.149    92.866
4627.75     69.088    91.853
4695.06     69.378    89.532
4763.35     69.360    85.752
4832.64     69.144    84.631
4902.93     69.305    84.743
4974.24     69.578    83.142
5046.60     69.676    81.515
5120.00     69.802    80.806
5194.47     70.086    80.200
5270.03     70.436    78.319
5346.68     70.507    75.875
5424.45     70.579    75.885
5503.35     71.051    74.700
5583.40     71.108    71.296
5664.61     70.990    71.894
5747.01     71.505    72.100
5830.60     71.760    69.538
5915.41     71.940    69.089
6001.45     72.362    67.155
6088.74     72.457    64.469
6177.30     72.492    63.307
6267.15     72.635    62.794
6358.31     72.875    61.294
6450.80     72.727    60.395
6544.62     73.045    63.569
6639.82     73.868    62.251
6736.40     74.289    60.171
6834.38     74.914    57.284
6933.79     75.160    53.040
7034.64     75.461    49.861
7136.96     75.569    44.962
7240.77     75.487    41.628
7346.09     75.361    37.840
7452.94     74.962    36.109
7561.35     74.970    36.495
7671.33     75.164    33.797
7782.91     74.986    31.638
7896.12     74.940    28.878
8010.97     74.422    28.008
8127.49     74.432    27.388
8245.71     73.911    28.040
8365.65     74.162    28.909
8487.33     73.856    30.138
8610.78     74.348    31.007
8736.03     74.357    31.039
8863.09     74.713    29.989
8992.01     74.642    30.480
9122.80     75.114    29.967
9255.50     75.213    29.334
9390.12     75.636    27.309
9526.70     75.629    26.533
9665.27     75.951    23.274
9805.86     75.716    23.071
9948.49     75.906    21.801
10093.2     76.089    21.952
10240.0     76.333    19.710
10388.9     76.549    18.544
10540.1     76.685    15.147
10693.4     76.786    13.317
10848.9     76.663     9.819
11006.7     76.530     8.703
11166.8     76.372     7.031
11329.2     76.498     6.924
11494.0     76.404     5.798
11661.2     76.606     3.074
11830.8     76.727     2.189
12002.9     76.615    -1.940
12177.5     76.485    -6.197
12354.6     75.862    -7.273
12534.3     75.199    -7.804
12716.6     75.048    -6.154
12901.6     75.164    -3.961
13089.2     75.303    -5.099
13279.6     75.166    -7.815
13472.8     74.881    -7.157
13668.8     74.932    -5.432
13867.6     75.177    -6.744
14069.3     75.357    -9.364
14273.9     75.289   -12.519
14481.5     74.687   -15.946
14692.2     73.865   -16.650
14905.9     73.271   -13.988
15122.7     73.183    -9.784
15342.7     73.234    -7.230
15565.8     73.262    -5.004
15792.2     73.483    -3.267
16021.9     73.818    -1.355
16255.0     74.369    -0.416
16491.4     74.985    -1.224
16731.3     75.491    -4.887
16974.7     75.503    -9.614
17221.6     75.198   -11.734
17472.1     75.133   -11.780
17726.2     75.265   -11.743
17984.0     75.684   -12.790
18245.6     75.947   -16.311
18511.0     76.039   -19.693
18780.2     76.086   -23.486
19053.4     75.996   -27.297
19330.5     75.882   -31.153
19611.7     75.540   -35.600
19897.0     74.982   -38.180
20186.4     74.330   -37.861
20480.0     74.970   -31.158
20777.9     76.299   -43.308
21080.1     75.563   -52.302
21386.7     74.827   -58.510
21697.8     74.051   -62.734
22013.4     73.328   -66.222
22333.6     72.616   -69.573
22658.4     71.803   -72.232
22988.0     71.145   -74.410
23322.4     70.457   -77.288
23661.6     69.594   -80.237
24005.8     68.657   -81.466
24355.0     67.922   -82.577
24709.2     67.143   -84.168
25068.6     66.316   -85.180
25433.2     65.547   -86.243
25803.2     64.777   -87.352
26178.5     63.973   -88.939
26559.3     63.117   -89.709
26945.6     62.315   -90.519
27337.5     61.560   -92.222
27735.2     60.736   -94.392
28138.6     59.381   -97.727
28547.9     58.082   -97.889
28963.1     56.684   -96.679
29384.4     55.513   -94.229
29811.8     54.870   -92.999
30245.4     53.724   -98.395
30685.3     51.509  -101.617
31131.7     47.428  -109.586
31584.5     45.506    83.080
32043.9     53.488   -62.088
32510.0     50.714   -73.708
32982.8     49.104   -77.421
33462.6     47.065   -80.630
33949.3     44.824   -75.570
34443.1     43.449   -68.531
34944.1     42.589   -63.186
35452.4     42.292   -60.381
35968.0     40.875   -93.062
36491.2     31.526   -34.710
37022.0     35.445   -23.043
37560.5     35.713   -12.858
38106.8     36.920    -5.520
38661.1     36.792   -12.202
39223.4     35.403    -9.545
39793.9     34.306    -2.782
