Freq[Hz]     dBSPL  Phase[Deg]
5.00000     -2.719    46.155
5.07273     -2.262    47.881
5.14651     -1.909    49.134
5.22137     -1.850    49.063
5.29732     -1.791    48.992
5.37437     -1.732    48.921
5.45254     -1.673    48.851
5.53185     -1.932    49.152
5.61231     -2.526    49.847
5.69394     -3.120    50.542
5.77676     -3.715    51.237
5.86079     -4.317    52.092
5.94604     -5.411    62.380
6.03252     -6.505    72.669
6.12027     -7.599    82.957
6.20929     -8.692    93.245
6.29961     -7.751   104.398
6.39124     -6.359   115.743
6.48420     -4.966   127.088
6.57851     -3.574   138.433
6.67420     -2.508   139.732
6.77128     -1.495   139.400
6.86977     -0.482   139.068
6.96969      0.419   138.417
7.07107      0.470   135.338
7.17392      0.521   132.260
7.27827      0.572   129.182
7.38413     -0.183   125.752
7.49154     -1.560   122.052
7.60050     -2.937   118.351
7.71105     -4.639   123.505
7.82321     -7.769   167.546
7.93701    -10.898  -148.414
8.05245    -14.027  -104.373
8.16958     -9.554  -104.282
8.28841     -4.798  -105.832
8.40896     -0.041  -107.383
8.53128      1.481  -113.628
8.65537      2.584  -120.478
8.78126      3.688  -127.329
8.90899      3.163  -138.601
9.03857      2.532  -150.163
9.17004      1.919  -164.624
9.30342      1.451   157.835
9.43874      0.983   120.293
9.57603      2.229    89.185
9.71532      6.094    67.904
9.85663      9.960    46.623
10.0000     12.620    35.059
10.1455     14.944    26.204
10.2930     17.031    18.014
10.4427     18.455    11.687
10.5946     19.880     5.359
10.7487     20.873     0.341
10.9051     21.779    -4.415
11.0637     22.522    -8.355
11.2246     23.092   -11.433
11.3879     23.628   -14.115
11.5535     24.041   -15.356
11.7216     24.455   -16.574
11.8921     24.891   -16.403
12.0650     25.327   -16.231
12.2405     25.844   -15.737
12.4186     26.370   -15.201
12.5992     26.904   -14.941
12.7825     27.438   -14.742
12.9684     27.897   -14.620
13.1570     28.337   -14.516
13.3484     28.701   -13.839
13.5426     29.051   -13.069
13.7395     29.443   -11.257
13.9394     29.858    -9.361
14.1421     30.443    -7.133
14.3478     31.081    -5.209
14.5565     31.833    -3.938
14.7683     32.578    -3.498
14.9831     33.318    -3.699
15.2010     33.918    -4.652
15.4221     34.458    -5.696
15.6464     34.835    -6.575
15.8740     35.160    -6.797
16.1049     35.443    -6.494
16.3392     35.838    -4.939
16.5768     36.348    -3.326
16.8179     37.017    -1.697
17.0626     37.845    -1.433
17.3107     38.673    -2.094
17.5625     39.473    -3.896
17.8180     40.068    -6.755
18.0771     40.510    -9.640
18.3401     40.797   -12.333
18.6068     40.902   -13.818
18.8775     41.014   -13.685
19.1521     41.247   -12.371
19.4306     41.690   -10.171
19.7133     42.491    -8.542
20.0000     43.425    -8.645
20.2909     44.342   -10.292
20.5860     45.142   -13.221
20.8855     45.744   -16.885
21.1893     46.078   -20.325
21.4975     46.248   -22.650
21.8102     46.372   -23.487
22.1274     46.584   -22.906
22.4492     46.995   -21.525
22.7758     47.634   -20.357
23.1071     48.409   -20.284
23.4432     49.172   -21.473
23.7841     49.807   -23.437
24.1301     50.304   -25.393
24.4811     50.716   -26.838
24.8372     51.126   -27.645
25.1984     51.604   -28.105
25.5649     52.165   -28.729
25.9368     52.763   -29.899
26.3141     53.335   -31.652
26.6968     53.836   -33.723
27.0851     54.265   -35.745
27.4791     54.661   -37.459
27.8788     55.078   -38.874
28.2843     55.544   -40.235
28.6957     56.051   -41.784
29.1131     56.571   -43.602
29.5365     57.080   -45.596
29.9661     57.573   -47.597
30.4020     58.065   -49.480
30.8442     58.579   -51.238
31.2929     59.118   -52.984
31.7480     59.673   -54.787
32.2098     60.225   -56.636
32.6783     60.767   -58.439
33.1536     61.305   -60.130
33.6359     61.849   -61.730
34.1251     62.403   -63.333
34.6215     62.957   -65.031
35.1250     63.500   -66.831
35.6359     64.022   -68.713
36.1543     64.536   -70.653
36.6802     65.045   -72.686
37.2137     65.551   -74.864
37.7550     66.056   -77.186
38.3041     66.565   -79.668
38.8613     67.080   -82.301
39.4265     67.605   -85.109
40.0000     68.136   -88.041
40.5818     68.677   -91.061
41.1721     69.230   -94.191
41.7710     69.780   -97.455
42.3785     70.302  -100.782
42.9949     70.789  -103.944
43.6203     71.268  -106.835
44.2548     71.764  -109.585
44.8985     72.268  -112.463
45.5515     72.747  -115.504
46.2141     73.194  -118.593
46.8863     73.625  -121.703
47.5683     74.055  -124.989
48.2602     74.465  -128.528
48.9621     74.850  -132.231
49.6743     75.220  -136.020
50.3968     75.583  -139.911
51.1299     75.936  -143.906
51.8736     76.272  -147.947
52.6281     76.593  -151.991
53.3936     76.896  -156.024
54.1702     77.179  -160.038
54.9581     77.438  -164.044
55.7575     77.672  -168.069
56.5685     77.877  -172.117
57.3914     78.054  -176.201
58.2261     78.200   179.684
59.0730     78.311   175.641
59.9323     78.404   171.748
60.8040     78.496   167.995
61.6884     78.590   164.350
62.5857     78.684   160.746
63.4960     78.761   157.186
64.4196     78.816   153.766
65.3566     78.864   150.461
66.3073     78.894   147.187
67.2717     78.903   143.989
68.2502     78.898   140.873
69.2429     78.885   137.853
70.2501     78.877   134.961
71.2719     78.884   132.127
72.3086     78.902   129.301
73.3603     78.915   126.495
74.4274     78.916   123.779
75.5099     78.902   121.108
76.6083     78.843   118.585
77.7226     78.776   116.457
78.8531     78.740   114.388
80.0000     78.706   112.338
81.1636     78.710   110.305
82.3442     78.729   108.055
83.5419     78.750   105.780
84.7570     78.768   103.484
85.9899     78.779   101.272
87.2406     78.779    99.114
88.5096     78.771    97.140
89.7970     78.787    95.183
91.1031     78.801    92.999
92.4282     78.776    90.715
93.7726     78.708    88.504
95.1366     78.600    86.644
96.5204     78.519    85.198
97.9243     78.470    83.872
99.3486     78.460    82.615
100.794     78.479    81.303
102.260     78.524    79.901
103.747     78.572    78.380
105.256     78.612    76.739
106.787     78.637    75.020
108.340     78.645    73.191
109.916     78.610    71.436
111.515     78.576    70.111
113.137     78.586    68.928
114.783     78.619    67.667
116.452     78.656    66.294
118.146     78.695    64.848
119.865     78.733    63.408
121.608     78.781    62.034
123.377     78.832    60.612
125.171     78.875    59.098
126.992     78.916    57.476
128.839     78.964    55.768
130.713     79.011    53.942
132.615     79.028    52.153
134.543     79.014    50.551
136.500     79.013    49.067
138.486     79.031    47.658
140.500     79.058    46.027
142.544     79.086    44.065
144.617     79.039    42.196
146.721     78.965    41.049
148.855     79.012    40.047
151.020     79.129    38.282
153.217     79.135    35.631
155.445     78.970    33.659
157.706     78.885    32.240
160.000     78.702    30.724
162.327     78.574    30.511
164.688     78.599    29.934
167.084     78.694    29.391
169.514     78.945    26.691
171.980     78.666    23.010
174.481     78.296    22.532
177.019     78.190    22.900
179.594     78.163    22.577
182.206     78.114    22.205
184.856     78.108    22.368
187.545     78.230    22.211
190.273     78.426    21.597
193.041     78.624    19.978
195.849     78.681    17.989
198.697     78.722    16.276
201.587     78.751    14.427
204.520     78.658    12.252
207.494     78.565    11.083
210.512     78.492     9.708
213.574     78.537     7.825
216.681     78.212     6.131
219.833     78.157     6.313
223.030     78.094     4.879
226.274     77.965     3.976
229.565     77.863     3.609
232.905     77.708     2.894
236.292     77.610     3.386
239.729     77.622     3.723
243.216     77.722     3.876
246.754     77.874     3.286
250.343     77.943     2.069
253.984     77.979     2.099
257.678     78.157     0.762
261.426     78.234    -0.479
265.229     78.364    -2.343
269.087     78.160    -5.202
273.001     77.897    -5.287
276.972     77.885    -4.892
281.000     77.910    -5.074
285.088     78.069    -5.789
289.234     78.166    -7.282
293.441     78.130    -8.202
297.709     78.293    -9.946
302.040     78.249   -11.970
306.433     78.081   -14.893
310.890     77.789   -14.849
315.412     77.935   -15.625
320.000     77.893   -17.620
324.655     77.670   -21.296
329.377     77.221   -20.610
334.168     77.210   -20.805
339.028     77.090   -21.221
343.959     77.140   -21.765
348.962     77.119   -22.957
354.038     77.095   -24.039
359.188     77.115   -25.177
364.412     77.135   -27.802
369.713     76.752   -30.087
375.090     76.584   -30.056
380.546     76.557   -30.288
386.081     76.563   -30.904
391.697     76.729   -31.664
397.394     76.745   -33.420
403.175     76.810   -35.817
409.039     76.611   -37.450
414.989     76.673   -38.420
421.025     76.701   -39.848
427.149     76.769   -41.485
433.362     76.849   -43.249
439.665     76.947   -45.276
446.060     76.955   -48.389
452.548     76.849   -51.042
459.131     76.819   -53.345
465.809     76.712   -55.829
472.584     76.674   -58.010
479.458     76.583   -60.493
486.432     76.523   -62.358
493.507     76.468   -64.659
500.686     76.370   -66.852
507.968     76.294   -68.703
515.357     76.216   -70.472
522.853     76.138   -72.115
530.458     76.081   -73.595
538.174     76.031   -74.899
546.002     75.978   -76.091
553.943     75.949   -77.058
562.001     75.925   -77.929
570.175     75.925   -78.666
578.469     75.941   -79.348
586.883     75.980   -79.963
595.419     76.036   -80.617
604.080     76.124   -81.355
612.866     76.233   -82.153
621.780     76.371   -83.047
630.824     76.519   -84.140
640.000     76.689   -85.353
649.309     76.864   -86.756
658.753     77.043   -88.351
668.335     77.228   -90.212
678.056     77.405   -92.196
687.919     77.566   -94.448
697.925     77.720   -96.903
708.077     77.852   -99.495
718.376     77.969  -102.243
728.825     78.068  -105.107
739.426     78.140  -108.060
750.181     78.191  -111.065
761.093     78.211  -114.080
772.163     78.206  -117.032
783.394     78.172  -119.956
794.789     78.115  -122.826
806.349     78.035  -125.590
818.078     77.941  -128.201
829.977     77.836  -130.673
842.050     77.730  -132.972
854.298     77.627  -135.107
866.724     77.540  -137.040
879.330     77.469  -138.873
892.120     77.426  -140.639
905.097     77.413  -142.359
918.262     77.432  -144.139
931.618     77.486  -145.987
945.169     77.558  -147.960
958.917     77.648  -150.160
972.864     77.761  -152.597
987.015     77.868  -155.178
1001.37     77.973  -158.063
1015.94     78.065  -161.111
1030.71     78.145  -164.314
1045.71     78.208  -167.720
1060.92     78.256  -171.276
1076.35     78.283  -174.908
1092.00     78.292  -178.603
1107.89     78.281   177.542
1124.00     78.255   173.618
1140.35     78.207   169.595
1156.94     78.137   165.440
1173.77     78.041   161.173
1190.84     77.910   156.820
1208.16     77.744   152.362
1225.73     77.533   147.853
1243.56     77.262   143.304
1261.65     76.934   138.834
1280.00     76.548   134.524
1298.62     76.104   130.578
1317.51     75.604   126.984
1336.67     75.070   123.943
1356.11     74.523   121.568
1375.84     74.007   119.881
1395.85     73.554   118.831
1416.15     73.215   118.145
1436.75     72.996   117.534
1457.65     72.899   116.716
1478.85     72.876   115.329
1500.36     72.898   113.319
1522.19     72.918   110.699
1544.33     72.916   107.479
1566.79     72.877   103.907
1589.58     72.786   100.092
1612.70     72.661    96.159
1636.16     72.513    92.095
1659.95     72.357    87.972
1684.10     72.205    83.708
1708.60     72.067    79.181
1733.45     71.954    74.206
1758.66     71.848    68.614
1784.24     71.748    62.210
1810.19     71.623    54.962
1836.52     71.452    46.654
1863.24     71.203    37.297
1890.34     70.861    26.904
1917.83     70.420    15.676
1945.73     69.870     3.733
1974.03     69.251    -8.615
2002.74     68.606   -20.899
2031.87     68.056   -32.564
2061.43     67.736   -43.272
2091.41     67.768   -53.046
2121.83     68.237   -62.700
2152.69     69.065   -72.902
2184.01     70.096   -84.171
2215.77     71.141   -96.499
2248.00     72.056  -109.380
2280.70     72.760  -122.296
2313.87     73.209  -134.746
2347.53     73.404  -146.211
2381.68     73.384  -156.059
2416.32     73.225  -163.973
2451.46     73.055  -169.877
2487.12     72.988  -174.180
2523.30     73.076  -177.798
2560.00     73.273   178.587
2597.24     73.485   174.737
2635.01     73.654   170.879
2673.34     73.794   167.409
2712.23     73.940   164.394
2751.68     74.141   161.531
2791.70     74.377   158.463
2832.31     74.588   155.122
2873.50     74.722   151.769
2915.30     74.792   148.907
2957.70     74.875   146.705
3000.72     75.048   144.931
3044.37     75.318   142.962
3088.65     75.624   140.391
3133.58     75.891   137.365
3179.16     76.098   134.207
3225.40     76.266   131.157
3272.31     76.424   128.235
3319.91     76.584   125.331
3368.20     76.745   122.323
3417.19     76.894   119.159
3466.89     77.002   115.797
3517.32     77.046   112.439
3568.48     77.032   109.396
3620.39     77.016   106.780
3673.05     77.034   104.372
3726.47     77.074   101.905
3780.67     77.125    99.345
3835.67     77.192    96.609
3891.46     77.240    93.381
3948.06     77.182    89.720
4005.49     76.957    86.307
4063.75     76.625    83.817
4122.86     76.287    82.456
4182.82     76.009    82.058
4243.66     75.870    82.373
4305.39     75.906    82.568
4368.01     76.007    81.985
4431.55     76.066    81.105
4496.01     76.134    80.390
4561.40     76.233    79.472
4627.75     76.302    78.508
4695.06     76.389    77.969
4763.35     76.577    77.438
4832.64     76.828    76.425
4902.93     77.099    74.908
4974.24     77.363    72.785
5046.60     77.573    70.206
5120.00     77.731    67.295
5194.47     77.788    63.977
5270.03     77.689    60.913
5346.68     77.528    58.690
5424.45     77.366    57.105
5503.35     77.238    56.303
5583.40     77.248    55.881
5664.61     77.369    55.111
5747.01     77.566    53.744
5830.60     77.757    51.303
5915.41     77.816    48.238
6001.45     77.753    45.115
6088.74     77.546    42.221
6177.30     77.238    40.224
6267.15     76.914    39.309
6358.31     76.695    39.505
6450.80     76.662    39.663
6544.62     76.686    39.254
6639.82     76.713    38.477
6736.40     76.719    37.593
6834.38     76.736    36.591
6933.79     76.711    35.560
7034.64     76.736    34.683
7136.96     76.767    33.191
7240.77     76.706    31.473
7346.09     76.576    29.908
7452.94     76.358    28.419
7561.35     76.041    28.129
7671.33     75.874    28.600
7782.91     75.694    28.937
7896.12     75.522    30.467
8010.97     75.629    32.797
8127.49     75.953    33.772
8245.71     76.255    33.092
8365.65     76.358    31.135
8487.33     76.175    29.446
8610.78     75.924    29.298
8736.03     75.773    29.397
8863.09     75.676    29.661
8992.01     75.634    29.332
9122.80     75.544    28.598
9255.50     75.426    28.198
9390.12     75.362    27.791
9526.70     75.379    27.546
9665.27     75.539    26.598
9805.86     75.667    24.490
9948.49     75.702    21.985
10093.2     75.604    20.085
10240.0     75.581    19.393
10388.9     75.685    18.623
10540.1     75.877    17.441
10693.4     76.007    15.295
10848.9     76.059    13.290
11006.7     76.083    11.055
11166.8     76.062     9.142
11329.2     75.996     6.998
11494.0     75.874     5.429
11661.2     75.744     4.513
11830.8     75.830     4.444
12002.9     76.094     2.829
12177.5     76.336    -0.473
12354.6     76.293    -5.192
12534.3     75.907    -9.326
12716.6     75.473   -10.914
12901.6     75.184   -12.956
13089.2     74.832   -14.188
13279.6     74.515   -15.316
13472.8     74.283   -16.035
13668.8     74.102   -17.267
13867.6     73.888   -19.500
14069.3     73.423   -21.907
14273.9     72.747   -22.522
14481.5     72.204   -21.079
14692.2     72.026   -18.657
14905.9     72.103   -18.190
15122.7     72.073   -19.648
15342.7     71.822   -21.098
15565.8     71.484   -21.886
15792.2     71.154   -22.395
16021.9     70.813   -22.192
16255.0     70.612   -21.790
16491.4     70.423   -22.394
16731.3     70.062   -23.250
16974.7     69.642   -22.093
17221.6     69.588   -20.336
17472.1     69.763   -21.073
17726.2     69.569   -23.488
17984.0     69.271   -24.644
18245.6     69.067   -25.831
18511.0     68.769   -28.188
18780.2     68.250   -29.777
19053.4     67.876   -30.938
19330.5     67.316   -33.266
19611.7     66.546   -33.314
19897.0     66.318   -32.237
20186.4     66.107   -36.883
20480.0     64.808   -40.910
20777.9     63.573   -39.739
21080.1     62.562   -39.367
21386.7     61.025   -37.546
21697.8     59.599   -31.534
22013.4     58.533   -21.607
22333.6     58.128   -11.579
22658.4     58.165    -0.055
22988.0     59.112     6.975
23322.4     59.609     9.632
23661.6     60.202    14.358
24005.8     61.213    14.841
24355.0     61.848    12.437
24709.2     62.310     8.435
25068.6     62.263     3.129
25433.2     61.949     0.140
25803.2     61.771    -2.863
26178.5     61.548    -5.479
26559.3     61.561    -9.554
26945.6     61.176   -16.381
27337.5     60.283   -21.653
27735.2     59.346   -25.832
28138.6     58.246   -29.124
28547.9     56.812   -34.071
28963.1     54.523   -35.484
29384.4     51.739   -30.703
29811.8     49.552   -14.840
30245.4     48.547     0.186
30685.3     47.788    18.652
31131.7     48.426    35.753
31584.5     49.591    50.068
32043.9     51.469    56.970
32510.0     52.827    57.044
32982.8     53.610    56.218
33462.6     54.389    54.777
33949.3     55.057    50.148
34443.1     55.221    44.928
34944.1     55.314    37.550
35452.4     54.335    30.800
35968.0     53.596    28.623
36491.2     52.966    24.622
37022.0     51.891    20.418
37560.5     50.657    17.939
38106.8     49.301    16.165
38661.1     47.842    16.313
39223.4     46.375    17.578
39793.9     44.891    20.070
