Freq[Hz]     dBSPL  Phase[Deg]
5.00000     -2.666    46.429
5.07273     -2.210    48.150
5.14651     -1.859    49.396
5.22137     -1.800    49.318
5.29732     -1.742    49.240
5.37437     -1.683    49.163
5.45254     -1.625    49.085
5.53185     -1.884    49.379
5.61231     -2.479    50.065
5.69394     -3.073    50.752
5.77676     -3.668    51.439
5.86079     -4.271    52.286
5.94604     -5.365    62.565
6.03252     -6.458    72.844
6.12027     -7.552    83.123
6.20929     -8.646    93.402
6.29961     -7.704   104.546
6.39124     -6.311   115.881
6.48420     -4.918   127.217
6.57851     -3.525   138.552
6.67420     -2.458   139.842
6.77128     -1.445   139.501
6.86977     -0.432   139.159
6.96969      0.470   138.499
7.07107      0.522   135.413
7.17392      0.575   132.326
7.27827      0.627   129.239
7.38413     -0.126   125.803
7.49154     -1.501   122.096
7.60050     -2.876   118.389
7.71105     -4.576   123.537
7.82321     -7.703   167.573
7.93701    -10.830  -148.390
8.05245    -13.957  -104.353
8.16958     -9.482  -104.263
8.28841     -4.723  -105.814
8.40896      0.036  -107.365
8.53128      1.560  -113.607
8.65537      2.667  -120.455
8.78126      3.774  -127.302
8.90899      3.252  -138.566
9.03857      2.624  -150.120
9.17004      2.014  -164.573
9.30342      1.549   157.898
9.43874      1.085   120.369
9.57603      2.334    89.275
9.71532      6.202    68.012
9.85663     10.070    46.749
10.0000     12.733    35.207
10.1455     15.060    26.375
10.2930     17.149    18.210
10.4427     18.576    11.910
10.5946     20.004     5.611
10.7487     20.998     0.625
10.9051     21.906    -4.099
11.0637     22.650    -8.004
11.2246     23.221   -11.045
11.3879     23.758   -13.690
11.5535     24.172   -14.891
11.7216     24.586   -16.068
11.8921     25.022   -15.855
12.0650     25.457   -15.642
12.2405     25.972   -15.105
12.4186     26.497   -14.526
12.5992     27.027   -14.223
12.7825     27.560   -13.981
12.9684     28.015   -13.818
13.1570     28.452   -13.673
13.3484     28.810   -12.958
13.5426     29.156   -12.149
13.7395     29.542   -10.304
13.9394     29.952    -8.375
14.1421     30.532    -6.118
14.3478     31.164    -4.166
14.5565     31.910    -2.872
14.7683     32.649    -2.411
14.9831     33.382    -2.594
15.2010     33.976    -3.534
15.4221     34.509    -4.566
15.6464     34.880    -5.438
15.8740     35.199    -5.655
16.1049     35.476    -5.348
16.3392     35.866    -3.792
16.5768     36.371    -2.180
16.8179     37.036    -0.552
17.0626     37.859    -0.290
17.3107     38.683    -0.952
17.5625     39.479    -2.754
17.8180     40.071    -5.610
18.0771     40.511    -8.491
18.3401     40.795   -11.178
18.6068     40.898   -12.652
18.8775     41.009   -12.503
19.1521     41.239   -11.170
19.4306     41.679    -8.946
19.7133     42.477    -7.289
20.0000     43.407    -7.360
20.2909     44.321    -8.971
20.5860     45.115   -11.862
20.8855     45.711   -15.485
21.1893     46.038   -18.885
21.4975     46.199   -21.170
21.8102     46.313   -21.969
22.1274     46.515   -21.354
22.4492     46.915   -19.943
22.7758     47.541   -18.753
23.1071     48.303   -18.665
23.4432     49.051   -19.847
23.7841     49.674   -21.814
24.1301     50.157   -23.783
24.4811     50.556   -25.249
24.8372     50.953   -26.085
25.1984     51.419   -26.580
25.5649     51.970   -27.242
25.9368     52.559   -28.453
26.3141     53.124   -30.246
26.6968     53.618   -32.352
27.0851     54.043   -34.404
27.4791     54.434   -36.137
27.8788     54.846   -37.560
28.2843     55.307   -38.917
28.6957     55.809   -40.449
29.1131     56.322   -42.240
29.5365     56.821   -44.199
29.9661     57.302   -46.159
30.4020     57.778   -48.003
30.8442     58.274   -49.730
31.2929     58.790   -51.459
31.7480     59.319   -53.266
32.2098     59.844   -55.146
32.6783     60.358   -57.016
33.1536     60.868   -58.809
33.6359     61.385   -60.548
34.1251     61.916   -62.324
34.6215     62.452   -64.225
35.1250     62.983   -66.248
35.6359     63.502   -68.363
36.1543     64.019   -70.531
36.6802     64.540   -72.773
37.2137     65.066   -75.120
37.7550     65.596   -77.564
38.3041     66.133   -80.099
38.8613     66.676   -82.718
39.4265     67.226   -85.438
40.0000     67.776   -88.221
40.5818     68.326   -91.042
41.1721     68.876   -93.945
41.7710     69.410   -96.981
42.3785     69.905  -100.103
42.9949     70.354  -103.106
43.6203     70.788  -105.900
44.2548     71.235  -108.630
44.8985     71.689  -111.568
45.5515     72.121  -114.742
46.2141     72.528  -118.024
46.8863     72.927  -121.370
47.5683     73.335  -124.909
48.2602     73.733  -128.694
48.9621     74.114  -132.612
49.6743     74.484  -136.572
50.3968     74.849  -140.582
51.1299     75.202  -144.652
51.8736     75.533  -148.738
52.6281     75.843  -152.818
53.3936     76.128  -156.901
54.1702     76.390  -160.993
54.9581     76.626  -165.118
55.7575     76.840  -169.300
56.5685     77.029  -173.529
57.3914     77.196  -177.802
58.2261     77.337   177.907
59.0730     77.447   173.720
59.9323     77.540   169.722
60.8040     77.628   165.898
61.6884     77.714   162.201
62.5857     77.793   158.543
63.4960     77.849   154.904
64.4196     77.882   151.368
65.3566     77.908   147.903
66.3073     77.920   144.436
67.2717     77.916   141.033
68.2502     77.904   137.723
69.2429     77.888   134.536
70.2501     77.877   131.511
71.2719     77.878   128.572
72.3086     77.882   125.649
73.3603     77.878   122.729
74.4274     77.858   119.862
75.5099     77.825   116.996
76.6083     77.750   114.242
77.7226     77.675   111.871
78.8531     77.638   109.573
80.0000     77.607   107.333
81.1636     77.616   105.158
82.3442     77.635   102.810
83.5419     77.649   100.459
84.7570     77.653    98.080
85.9899     77.645    95.756
87.2406     77.623    93.445
88.5096     77.594    91.280
89.7970     77.593    89.106
91.1031     77.592    86.695
92.4282     77.558    84.185
93.7726     77.481    81.754
95.1366     77.367    79.685
96.5204     77.277    78.043
97.9243     77.223    76.531
99.3486     77.203    75.096
100.794     77.211    73.604
102.260     77.242    72.009
103.747     77.276    70.275
105.256     77.304    68.402
106.787     77.319    66.447
108.340     77.320    64.387
109.916     77.276    62.414
111.515     77.235    60.880
113.137     77.234    59.487
114.783     77.256    58.006
116.452     77.279    56.393
118.146     77.307    54.680
119.865     77.336    52.955
121.608     77.383    51.300
123.377     77.437    49.639
125.171     77.482    47.943
126.992     77.515    46.171
128.839     77.545    44.286
130.713     77.571    42.210
132.615     77.574    40.113
134.543     77.554    38.205
136.500     77.552    36.463
138.486     77.563    34.848
140.500     77.576    32.970
142.544     77.594    30.696
144.617     77.541    28.546
146.721     77.463    27.154
148.855     77.501    25.899
151.020     77.606    23.851
153.217     77.604    20.896
155.445     77.435    18.648
157.706     77.342    16.973
160.000     77.148    15.150
162.327     77.013    14.601
164.688     77.038    13.746
167.084     77.129    12.954
169.514     77.368     9.973
171.980     77.076     5.954
174.481     76.701     5.160
177.019     76.589     5.241
179.594     76.552     4.596
182.206     76.495     3.846
184.856     76.487     3.644
187.545     76.607     3.167
190.273     76.800     2.206
193.041     76.997     0.253
195.849     77.051    -2.047
198.697     77.084    -4.120
201.587     77.109    -6.366
204.520     77.018    -8.917
207.494     76.926   -10.426
210.512     76.850   -12.160
213.574     76.890   -14.426
216.681     76.564   -16.497
219.833     76.510   -16.694
223.030     76.442   -18.513
226.274     76.307   -19.846
229.565     76.206   -20.663
232.905     76.052   -21.789
236.292     75.950   -21.716
239.729     75.961   -21.852
243.216     76.062   -22.133
246.754     76.205   -23.148
250.343     76.260   -24.904
253.984     76.292   -25.442
257.678     76.464   -27.318
261.426     76.532   -29.169
265.229     76.656   -31.675
269.087     76.449   -35.166
273.001     76.180   -35.913
276.972     76.167   -36.197
281.000     76.194   -37.046
285.088     76.342   -38.456
289.234     76.430   -40.702
293.441     76.381   -42.302
297.709     76.512   -44.839
302.040     76.457   -47.708
306.433     76.266   -51.386
310.890     75.937   -52.219
315.412     76.048   -53.885
320.000     75.965   -56.745
324.655     75.692   -61.282
329.377     75.180   -61.497
334.168     75.116   -62.698
339.028     74.925   -63.857
343.959     74.865   -65.355
348.962     74.762   -67.504
354.038     74.643   -69.388
359.188     74.547   -71.309
364.412     74.434   -74.766
369.713     73.923   -77.798
375.090     73.610   -78.403
380.546     73.431   -79.269
386.081     73.277   -80.378
391.697     73.280   -81.641
397.394     73.135   -83.648
403.175     73.025   -86.210
409.039     72.657   -87.957
414.989     72.551   -88.828
421.025     72.421   -90.115
427.149     72.343   -91.392
433.362     72.296   -92.705
439.665     72.265   -94.105
446.060     72.176   -96.518
452.548     71.989   -98.402
459.131     71.927   -99.884
465.809     71.803  -101.337
472.584     71.787  -102.670
479.458     71.754  -104.167
486.432     71.792  -105.298
493.507     71.874  -106.776
500.686     71.945  -108.372
507.968     72.070  -109.820
515.357     72.202  -111.438
522.853     72.374  -113.274
530.458     72.578  -115.148
538.174     72.798  -117.220
546.002     73.005  -119.390
553.943     73.224  -121.740
562.001     73.444  -124.300
570.175     73.649  -126.995
578.469     73.846  -130.000
586.883     74.029  -133.205
595.419     74.196  -136.507
604.080     74.336  -139.957
612.866     74.448  -143.733
621.780     74.546  -147.632
630.824     74.603  -151.678
640.000     74.631  -155.825
649.309     74.625  -159.993
658.753     74.586  -164.270
668.335     74.502  -168.709
678.056     74.390  -173.089
687.919     74.227  -177.434
697.925     74.020   178.231
708.077     73.768   174.119
718.376     73.467   170.108
728.825     73.120   166.291
739.426     72.722   162.781
750.181     72.286   159.562
761.093     71.817   156.739
772.163     71.355   154.457
783.394     70.893   152.760
794.789     70.465   151.642
806.349     70.109   151.167
818.078     69.838   151.010
829.977     69.711   151.045
842.050     69.702   151.102
854.298     69.815   150.820
866.724     70.012   149.931
879.330     70.271   148.407
892.120     70.545   146.128
905.097     70.823   143.127
918.262     71.069   139.565
931.618     71.279   135.456
945.169     71.430   131.054
958.917     71.512   126.295
972.864     71.544   121.354
987.015     71.510   116.349
1001.37     71.417   111.264
1015.94     71.272   106.220
1030.71     71.099   101.398
1045.71     70.888    96.656
1060.92     70.663    92.005
1076.35     70.439    87.523
1092.00     70.219    83.097
1107.89     70.015    78.625
1124.00     69.820    73.988
1140.35     69.628    69.173
1156.94     69.425    64.013
1173.77     69.192    58.547
1190.84     68.910    52.857
1208.16     68.558    46.835
1225.73     68.123    40.704
1243.56     67.598    34.506
1261.65     66.970    28.613
1280.00     66.249    23.205
1298.62     65.449    18.581
1317.51     64.609    14.880
1336.67     63.812    12.389
1356.11     63.116    11.022
1375.84     62.668    10.217
1395.85     62.454     9.548
1416.15     62.443     8.075
1436.75     62.572     5.236
1457.65     62.742     1.467
1478.85     62.891    -3.346
1500.36     62.973    -8.626
1522.19     63.042   -14.306
1544.33     63.093   -19.757
1566.79     63.175   -24.953
1589.58     63.324   -30.087
1612.70     63.572   -35.149
1636.16     63.962   -40.613
1659.95     64.425   -46.379
1684.10     64.969   -52.827
1708.60     65.530   -59.730
1733.45     66.092   -67.080
1758.66     66.649   -74.813
1784.24     67.185   -82.655
1810.19     67.689   -90.673
1836.52     68.180   -98.829
1863.24     68.628  -107.068
1890.34     69.021  -115.274
1917.83     69.359  -123.401
1945.73     69.624  -131.271
1974.03     69.844  -138.771
2002.74     70.038  -145.713
2031.87     70.242  -152.155
2061.43     70.496  -158.354
2091.41     70.815  -164.678
2121.83     71.158  -171.467
2152.69     71.463  -178.871
2184.01     71.665   173.127
2215.77     71.710   164.847
2248.00     71.560   156.787
2280.70     71.232   149.455
2313.87     70.775   143.325
2347.53     70.282   138.687
2381.68     69.864   135.384
2416.32     69.587   132.829
2451.46     69.442   130.333
2487.12     69.357   127.578
2523.30     69.287   124.607
2560.00     69.210   121.647
2597.24     69.155   118.720
2635.01     69.120   115.692
2673.34     69.079   112.382
2712.23     68.985   108.799
2751.68     68.810   105.330
2791.70     68.577   102.276
2832.31     68.343    99.720
2873.50     68.137    97.350
2915.30     67.936    94.774
2957.70     67.652    91.977
3000.72     67.206    89.586
3044.37     66.632    88.602
3088.65     66.109    89.803
3133.58     65.872    92.527
3179.16     65.996    94.991
3225.40     66.294    96.100
3272.31     66.573    96.144
3319.91     66.836    96.050
3368.20     67.176    95.873
3417.19     67.609    94.944
3466.89     68.023    92.951
3517.32     68.337    90.348
3568.48     68.567    87.677
3620.39     68.751    85.069
3673.05     68.911    82.476
3726.47     69.054    80.089
3780.67     69.253    77.773
3835.67     69.519    74.790
3891.46     69.725    70.657
3948.06     69.740    65.928
4005.49     69.537    61.495
4063.75     69.184    57.904
4122.86     68.715    55.567
4182.82     68.264    55.051
4243.66     68.043    56.012
4305.39     68.115    56.585
4368.01     68.258    55.927
4431.55     68.349    54.765
4496.01     68.430    53.675
4561.40     68.536    52.532
4627.75     68.679    51.139
4695.06     68.822    49.291
4763.35     68.917    47.210
4832.64     68.984    45.034
4902.93     69.004    42.660
4974.24     68.944    40.575
5046.60     68.914    39.083
5120.00     68.949    37.223
5194.47     68.890    35.111
5270.03     68.789    33.747
5346.68     68.772    32.699
5424.45     68.800    31.603
5503.35     68.872    30.375
5583.40     68.959    28.920
5664.61     69.102    27.525
5747.01     69.344    25.317
5830.60     69.518    21.730
5915.41     69.496    17.290
6001.45     69.175    13.026
6088.74     68.668    10.705
6177.30     68.221     9.956
6267.15     67.886    10.574
6358.31     67.844    11.744
6450.80     68.012    11.927
6544.62     68.247    10.736
6639.82     68.369     8.185
6736.40     68.287     5.447
6834.38     67.994     3.613
6933.79     67.769     4.372
7034.64     68.028     5.682
7136.96     68.628     4.203
7240.77     69.086    -0.693
7346.09     69.131    -7.483
7452.94     68.577   -14.113
7561.35     67.623   -17.125
7671.33     66.860   -15.988
7782.91     66.656   -13.812
7896.12     66.818   -13.457
8010.97     66.946   -16.425
8127.49     66.513   -20.171
8245.71     65.691   -20.486
8365.65     65.356   -16.500
8487.33     65.727   -14.809
8610.78     66.218   -17.705
8736.03     66.208   -23.922
8863.09     65.623   -30.124
8992.01     64.740   -34.047
9122.80     63.825   -36.284
9255.50     63.098   -37.445
9390.12     62.525   -39.259
9526.70     61.903   -42.690
9665.27     60.942   -48.016
9805.86     59.216   -51.422
9948.49     57.188   -48.919
10093.2     55.619   -39.218
10240.0     55.527   -26.273
10388.9     56.209   -21.883
10540.1     55.952   -21.054
10693.4     55.726   -13.484
10848.9     56.806    -8.158
11006.7     57.651   -11.989
11166.8     57.272   -17.515
11329.2     56.254   -16.250
11494.0     56.168    -9.770
11661.2     56.771    -8.458
11830.8     56.768   -11.390
12002.9     56.246   -10.312
12177.5     56.607    -7.570
12354.6     56.979   -12.753
12534.3     56.116   -20.086
12716.6     54.154   -22.735
12901.6     51.856   -15.124
13089.2     50.040     0.847
13279.6     50.604    28.578
13472.8     53.765    37.941
13668.8     55.225    34.570
13867.6     55.742    37.429
14069.3     57.390    39.636
14273.9     58.331    34.441
14481.5     58.435    33.497
14692.2     59.404    36.785
14905.9     60.980    32.594
15122.7     61.587    23.524
15342.7     61.555    17.931
15565.8     61.781    13.540
15792.2     61.780     6.153
16021.9     61.229     1.166
16255.0     60.926    -1.992
16491.4     60.380    -8.017
16731.3     59.131   -10.759
16974.7     58.082    -8.258
17221.6     57.532    -5.587
17472.1     57.078    -1.336
17726.2     56.683     2.281
17984.0     56.929     9.784
18245.6     57.686    12.171
18511.0     58.385    14.089
18780.2     59.547    11.445
19053.4     59.851     4.432
19330.5     59.835     2.225
19611.7     60.451    -2.008
19897.0     60.590   -10.103
20186.4     60.378   -18.079
20480.0     59.629   -26.753
20777.9     58.234   -31.274
21080.1     57.667   -30.265
21386.7     57.382   -34.968
21697.8     56.830   -38.708
22013.4     56.503   -48.250
22333.6     54.632   -58.989
22658.4     52.339   -65.361
22988.0     48.366   -66.869
23322.4     45.790   -47.448
23661.6     44.440   -35.710
24005.8     43.686   -17.817
24355.0     43.542     1.767
24709.2     45.996    16.619
25068.6     48.221    16.076
25433.2     49.275    10.724
25803.2     49.873     5.810
26178.5     50.229     0.450
26559.3     50.427    -6.233
26945.6     50.051   -11.702
27337.5     49.878   -14.228
27735.2     50.507   -18.910
28138.6     50.421   -31.144
28547.9     49.400   -44.692
28963.1     47.294   -52.393
29384.4     45.292   -56.543
29811.8     43.836   -60.538
30245.4     39.865   -73.503
30685.3     34.047   -45.817
31131.7     36.845   -16.461
31584.5     37.115   -34.570
32043.9     33.083   -38.328
32510.0     28.573   -13.370
32982.8     29.303    29.577
33462.6     32.941    37.722
33949.3     35.150    36.770
34443.1     36.088    24.394
34944.1     35.737    15.546
35452.4     34.322     9.420
35968.0     34.571     9.429
36491.2     34.395    -5.422
37022.0     32.209   -20.029
37560.5     29.784   -29.169
38106.8     27.791   -41.897
38661.1     24.949   -57.054
39223.4     22.461   -11.189
39793.9     21.666   176.343
