Freq[Hz]     dBSPL  Phase[Deg]
5.00000     -1.319   105.904
5.07273     -0.864   108.491
5.14651     -0.513   110.621
5.22137     -0.456   111.474
5.29732     -0.398   112.328
5.37437     -0.341   113.181
5.45254     -0.283   114.035
5.53185     -0.544   115.290
5.61231     -1.140   116.971
5.69394     -1.737   118.653
5.77676     -2.333   120.334
5.86079     -2.938   122.176
5.94604     -4.035   133.512
6.03252     -5.132   144.847
6.12027     -6.228   156.183
6.20929     -7.325   167.519
6.29961     -6.387   179.769
6.39124     -4.997  -167.779
6.48420     -3.608  -155.326
6.57851     -2.218  -142.873
6.67420     -1.156  -140.414
6.77128     -0.147  -139.578
6.86977      0.862  -138.742
6.96969      1.759  -138.219
7.07107      1.807  -140.070
7.17392      1.854  -141.920
7.27827      1.901  -143.771
7.38413      1.143  -145.939
7.49154     -0.238  -148.352
7.60050     -1.619  -150.766
7.71105     -3.325  -144.314
7.82321     -6.458   -98.926
7.93701     -9.592   -53.538
8.05245    -12.725    -8.150
8.16958     -8.256    -6.653
8.28841     -3.503    -6.796
8.40896      1.250    -6.940
8.53128      2.768   -11.723
8.65537      3.869   -17.105
8.78126      4.969   -22.486
8.90899      4.441   -32.232
9.03857      3.807   -42.263
9.17004      3.190   -55.186
9.30342      2.720   -91.134
9.43874      2.249  -127.082
9.57603      3.492  -156.572
9.71532      7.355  -176.195
9.85663     11.217   164.182
10.0000     13.875   154.327
10.1455     16.197   147.194
10.2930     18.282   140.745
10.4427     19.705   136.207
10.5946     21.127   131.668
10.7487     22.117   128.495
10.9051     23.021   125.594
11.0637     23.762   123.542
11.2246     24.330   122.387
11.3879     24.863   121.642
11.5535     25.274   122.391
11.7216     25.685   123.165
11.8921     26.118   125.393
12.0650     26.551   127.621
12.2405     27.062   130.231
12.4186     27.584   132.890
12.5992     28.112   135.327
12.7825     28.641   137.715
12.9684     29.094   140.078
13.1570     29.529   142.434
13.3484     29.885   145.418
13.5426     30.227   148.504
13.7395     30.610   152.690
13.9394     31.016   156.969
14.1421     31.591   161.634
14.3478     32.218   166.013
14.5565     32.960   169.779
14.7683     33.694   172.746
14.9831     34.422   175.097
15.2010     35.010   176.745
15.4221     35.537   178.320
15.6464     35.901  -179.894
15.8740     36.213  -177.419
16.1049     36.482  -174.395
16.3392     36.865  -170.063
16.5768     37.362  -165.647
16.8179     38.018  -161.182
17.0626     38.832  -158.029
17.3107     39.648  -155.770
17.5625     40.435  -154.615
17.8180     41.017  -154.458
18.0771     41.448  -154.292
18.3401     41.722  -153.895
18.6068     41.816  -152.233
18.8775     41.917  -148.902
19.1521     42.137  -144.348
19.4306     42.567  -138.861
19.7133     43.354  -133.885
20.0000     44.274  -130.588
20.2909     45.178  -128.787
20.5860     45.962  -128.219
20.8855     46.547  -128.336
21.1893     46.863  -128.170
21.4975     47.012  -126.840
21.8102     47.114  -123.973
22.1274     47.304  -119.644
22.4492     47.691  -114.468
22.7758     48.304  -109.460
23.1071     49.052  -105.503
23.4432     49.787  -102.763
23.7841     50.395  -100.752
24.1301     50.865   -98.688
24.4811     51.251   -96.067
24.8372     51.635   -92.760
25.1984     52.088   -89.055
25.5649     52.626   -85.458
25.9368     53.203   -82.349
26.3141     53.757   -79.758
26.6968     54.240   -77.416
27.0851     54.655   -74.952
27.4791     55.035   -72.097
27.8788     55.438   -68.858
28.2843     55.889   -65.480
28.6957     56.379   -62.202
29.1131     56.882   -59.108
29.5365     57.369   -56.108
29.9661     57.836   -53.037
30.4020     58.296   -49.776
30.8442     58.774   -46.319
31.2929     59.273   -42.796
31.7480     59.782   -39.285
32.2098     60.287   -35.782
32.6783     60.780   -32.194
33.1536     61.269   -28.462
33.6359     61.766   -24.608
34.1251     62.278   -20.714
34.6215     62.796   -16.863
35.1250     63.310   -13.054
35.6359     63.815    -9.237
36.1543     64.319    -5.376
36.6802     64.826    -1.484
37.2137     65.337     2.418
37.7550     65.851     6.330
38.3041     66.368    10.269
38.8613     66.887    14.223
39.4265     67.406    18.182
40.0000     67.917    22.162
40.5818     68.422    26.180
41.1721     68.922    30.182
41.7710     69.403    34.103
42.3785     69.840    37.988
42.9949     70.232    42.036
43.6203     70.610    46.338
44.2548     71.005    50.761
44.8985     71.415    55.045
45.5515     71.811    59.180
46.2141     72.190    63.311
46.8863     72.570    67.506
47.5683     72.962    71.658
48.2602     73.349    75.723
48.9621     73.718    79.815
49.6743     74.073    84.021
50.3968     74.418    88.318
51.1299     74.743    92.679
51.8736     75.042    97.131
52.6281     75.314   101.681
53.3936     75.560   106.314
54.1702     75.785   111.025
54.9581     75.987   115.804
55.7575     76.172   120.644
56.5685     76.338   125.574
57.3914     76.484   130.612
58.2261     76.606   135.793
59.0730     76.695   141.249
59.9323     76.763   147.046
60.8040     76.822   153.155
61.6884     76.873   159.521
62.5857     76.917   166.034
63.4960     76.938   172.682
64.4196     76.938   179.549
65.3566     76.936  -173.372
66.3073     76.925  -166.140
67.2717     76.902  -158.665
68.2502     76.873  -150.912
69.2429     76.836  -142.851
70.2501     76.801  -134.447
71.2719     76.772  -125.798
72.3086     76.744  -116.989
73.3603     76.705  -108.041
74.4274     76.651   -98.906
75.5099     76.586   -89.624
76.6083     76.486   -80.066
77.7226     76.390   -69.941
78.8531     76.334   -59.539
80.0000     76.286   -48.869
81.1636     76.272   -37.927
82.3442     76.267   -26.969
83.5419     76.249   -15.842
84.7570     76.222    -4.585
85.9899     76.183     6.882
87.2406     76.136    18.534
88.5096     76.088    30.526
89.7970     76.072    42.731
91.1031     76.058    54.933
92.4282     76.009    67.268
93.7726     75.915    79.895
95.1366     75.780    93.086
96.5204     75.672   106.898
97.9243     75.599   121.049
99.3486     75.565   135.498
100.794     75.560   150.120
102.260     75.578   164.867
103.747     75.600   179.696
105.256     75.621  -165.383
106.787     75.632  -150.293
108.340     75.632  -135.031
109.916     75.583  -119.407
111.515     75.532  -103.095
113.137     75.517   -86.429
114.783     75.530   -69.638
116.452     75.552   -52.727
118.146     75.584   -35.600
119.865     75.615   -18.167
121.608     75.652    -0.392
123.377     75.690    17.577
125.171     75.727    35.699
126.992     75.768    54.007
128.839     75.819    72.561
130.713     75.865    91.317
132.615     75.875   110.382
134.543     75.855   130.309
136.500     75.857   150.844
138.486     75.881   169.472
140.500     75.913  -170.098
142.544     75.945  -148.006
144.617     75.902  -127.850
146.721     75.835  -106.982
148.855     75.891   -83.966
151.020     76.020   -61.717
153.217     76.038   -40.351
155.445     75.884   -18.291
157.706     75.806     4.303
160.000     75.631    28.728
162.327     75.523    54.420
164.688     75.578    77.829
167.084     75.695   103.373
169.514     75.947   128.722
171.980     75.667   152.915
174.481     75.316   178.252
177.019     75.242  -155.496
179.594     75.243  -127.877
182.206     75.219   -98.322
184.856     75.236   -68.256
187.545     75.379   -40.526
190.273     75.601   -11.292
193.041     75.829    16.968
195.849     75.909    44.902
198.697     75.961    75.013
201.587     76.015   104.877
204.520     75.963   134.505
207.494     75.896   165.240
210.512     75.831  -162.346
213.574     75.894  -130.548
216.681     75.592  -100.525
219.833     75.558   -66.647
223.030     75.520   -32.414
226.274     75.411     2.377
229.565     75.319    37.648
232.905     75.176    72.514
236.292     75.090   108.582
239.729     75.113   146.432
243.216     75.224  -175.885
246.754     75.373  -138.962
250.343     75.436  -100.833
253.984     75.476   -61.472
257.678     75.652   -23.472
261.426     75.730    16.518
265.229     75.868    55.911
269.087     75.670    94.386
273.001     75.395   135.703
276.972     75.351   177.444
281.000     75.340  -139.422
285.088     75.428   -94.866
289.234     75.455   -51.308
293.441     75.357    -6.967
297.709     75.403    36.471
302.040     75.268    79.464
306.433     74.983   123.822
310.890     74.525   172.965
315.412     74.504  -138.681
320.000     74.266   -91.490
324.655     73.824   -45.941
329.377     73.128     3.975
334.168     72.845    57.043
339.028     72.407   110.185
343.959     72.103   163.072
348.962     71.737  -144.271
354.038     71.292   -91.289
359.188     70.872   -36.145
364.412     70.397    19.931
369.713     69.499    76.873
375.090     68.782   136.496
380.546     68.224  -161.429
386.081     67.700   -98.913
391.697     67.377   -33.736
397.394     66.993    33.472
403.175     66.772    98.626
409.039     66.453   166.862
414.989     66.595  -121.901
421.025     66.900   -51.445
427.149     67.375    18.165
433.362     67.992    86.868
439.665     68.709   158.627
446.060     69.376  -131.511
452.548     69.915   -62.050
459.131     70.540     8.897
465.809     71.111    81.300
472.584     71.694   153.447
479.458     72.180  -135.142
486.432     72.700   -61.639
493.507     73.182    13.263
500.686     73.596    89.854
507.968     73.991   166.470
515.357     74.346  -117.134
522.853     74.675   -38.802
530.458     74.982    41.420
538.174     75.259   121.500
546.002     75.484  -158.391
553.943     75.688   -76.369
562.001     75.854     7.563
570.175     75.981    93.397
578.469     76.073  -178.908
586.883     76.120   -91.292
595.419     76.130    -3.717
604.080     76.105    85.702
612.866     76.030   177.017
621.780     75.917   -89.825
630.824     75.757     5.184
640.000     75.546   100.193
649.309     75.295  -164.859
658.753     74.990   -68.048
668.335     74.632    32.624
678.056     74.214   133.376
687.919     73.700  -123.841
697.925     73.086   -19.159
708.077     72.363    85.538
718.376     71.499  -167.965
728.825     70.468   -59.678
739.426     69.234    50.082
750.181     67.819   161.133
761.093     66.180   -86.348
772.163     64.220    25.615
783.394     61.750   138.559
794.789     58.309  -107.594
806.349     53.271    -3.391
818.078     48.592    64.180
829.977     52.613   132.561
842.050     57.307  -118.238
854.298     60.332     3.919
866.724     62.352   129.302
879.330     63.824  -100.152
892.120     64.876    33.088
905.097     65.637   168.705
918.262     66.156   -53.210
931.618     66.473    87.255
945.169     66.611  -129.950
958.917     66.589    15.243
972.864     66.443   163.046
987.015     66.175   -46.587
1001.37     65.770   108.552
1015.94     65.309   -93.560
1030.71     64.803    65.416
1045.71     64.326  -130.595
1060.92     63.872    38.392
1076.35     63.559  -152.078
1092.00     63.384    19.781
1107.89     63.352  -164.618
1124.00     63.408    12.369
1140.35     63.508  -169.453
1156.94     63.591    11.990
1173.77     63.613  -165.369
1190.84     63.535    18.920
1208.16     63.356  -155.110
1225.73     63.053    35.040
1243.56     62.641  -130.753
1261.65     62.151    66.120
1280.00     61.602   -94.283
1298.62     61.051   108.016
1317.51     60.556   -45.272
1336.67     60.175   165.989
1356.11     59.882    19.164
1375.84     59.630  -124.412
1395.85     59.421    95.288
1416.15     59.108   -43.953
1436.75     58.702   178.410
1457.65     58.093    44.804
1478.85     57.253   -84.560
1500.36     56.247   149.404
1522.19     55.078    29.301
1544.33     53.993   -83.933
1566.79     53.289   169.664
1589.58     53.151    68.357
1612.70     53.522   -32.587
1636.16     54.171  -132.390
1659.95     54.813   129.636
1684.10     55.389    34.422
1708.60     55.911   -57.528
1733.45     56.431  -147.336
1758.66     57.031   128.867
1784.24     57.755    48.190
1810.19     58.540   -31.214
1836.52     59.346  -106.025
1863.24     60.066  -177.893
1890.34     60.650   113.545
1917.83     61.035    48.704
1945.73     61.248   -11.918
1974.03     61.270   -65.660
2002.74     61.190  -114.380
2031.87     61.089  -157.482
2061.43     61.068   164.724
2091.41     61.155   133.555
2121.83     61.418   108.418
2152.69     61.755    84.757
2184.01     62.103    66.401
2215.77     62.396    53.264
2248.00     62.593    43.686
2280.70     62.644    37.565
2313.87     62.516    37.284
2347.53     62.123    42.847
2381.68     61.434    53.086
2416.32     60.416    70.815
2451.46     59.145    97.516
2487.12     57.896   134.159
2523.30     57.062   179.770
2560.00     56.776  -128.721
2597.24     56.657   -75.152
2635.01     56.388   -16.866
2673.34     55.974    48.435
2712.23     55.655   121.322
2751.68     55.563  -157.983
2791.70     55.474   -73.414
2832.31     54.970    16.810
2873.50     54.018   116.214
2915.30     53.357  -132.233
2957.70     53.802   -11.031
3000.72     54.895   110.159
3044.37     55.658  -128.061
3088.65     55.830     0.512
3133.58     55.510   136.135
3179.16     54.890   -78.484
3225.40     53.889    77.500
3272.31     52.697  -114.164
3319.91     52.628    70.241
3368.20     54.304  -101.968
3417.19     56.059    81.656
3466.89     56.966   -90.518
3517.32     57.264   109.247
3568.48     57.554   -42.612
3620.39     58.105   173.311
3673.05     58.613    38.014
3726.47     59.019   -89.343
3780.67     59.505   150.967
3835.67     59.929    37.263
3891.46     60.004   -67.959
3948.06     59.662  -165.034
4005.49     58.971   106.051
4063.75     57.531    29.737
4122.86     54.979   -30.868
4182.82     53.427   -66.075
4243.66     55.003   -94.575
4305.39     56.111  -129.685
4368.01     56.091  -153.336
4431.55     56.432  -163.643
4496.01     56.934  -168.459
4561.40     56.610  -163.446
4627.75     56.342  -143.384
4695.06     56.555  -112.998
4763.35     56.197   -73.464
4832.64     55.948   -18.917
4902.93     56.383    45.286
4974.24     56.264   119.170
5046.60     56.127  -153.074
5120.00     56.389   -55.565
5194.47     55.992    53.514
5270.03     55.778   176.199
5346.68     55.514   -51.671
5424.45     54.663   100.966
5503.35     55.330   -91.381
5583.40     55.958    80.928
5664.61     56.457   -89.506
5747.01     57.608   107.470
5830.60     57.919   -45.890
5915.41     58.422   179.200
6001.45     58.749    51.811
6088.74     58.255   -61.334
6177.30     57.981  -155.598
6267.15     57.567   123.914
6358.31     57.156    58.776
6450.80     56.399     7.923
6544.62     55.671   -23.465
6639.82     55.542   -38.324
6736.40     55.707   -37.092
6834.38     56.000   -24.101
6933.79     56.365     5.842
7034.64     57.054    48.339
7136.96     57.306   103.014
7240.77     57.295   174.769
7346.09     56.699   -94.596
7452.94     56.071    12.016
7561.35     54.945   137.637
7671.33     53.805   -72.187
7782.91     53.281    95.535
7896.12     53.167   -77.559
8010.97     53.482   125.178
8127.49     54.117   -12.313
8245.71     54.592  -137.863
8365.65     54.724   114.640
8487.33     54.166    25.281
8610.78     53.419   -43.089
8736.03     52.255   -91.061
8863.09     50.618  -116.950
8992.01     49.153  -111.377
9122.80     49.091   -90.423
9255.50     49.006   -54.483
9390.12     48.163     6.686
9526.70     47.495    86.319
9665.27     46.917  -173.980
9805.86     45.702   -50.929
9948.49     44.075    85.658
10093.2     40.643  -104.990
10240.0     35.986    95.448
10388.9     32.478   -23.983
10540.1     30.770  -125.522
10693.4     25.787   174.430
10848.9     26.969   160.178
11006.7     29.903   144.286
11166.8     33.515   141.307
11329.2     36.102   150.054
11494.0     36.763  -174.112
11661.2     36.728  -107.133
11830.8     38.010   -12.459
12002.9     37.922    96.851
12177.5     35.125  -116.477
12354.6     31.886    82.111
12534.3     34.716   -42.538
12716.6     36.984  -167.667
12901.6     37.312   100.228
13089.2     38.715    48.100
13279.6     41.558     9.775
13472.8     42.613     0.122
13668.8     43.269    23.951
13867.6     45.279    80.950
14069.3     46.026   155.442
14273.9     44.811   -91.957
14481.5     44.066    66.619
14692.2     43.959   -99.204
14905.9     44.700   127.119
15122.7     45.354    22.780
15342.7     45.379   -46.870
15565.8     44.995   -81.546
15792.2     43.998   -75.357
16021.9     44.150   -29.709
16255.0     44.171    51.773
16491.4     44.337   168.002
16731.3     44.251   -36.867
16974.7     43.916   159.059
17221.6     44.523    38.881
17472.1     47.025   -70.804
17726.2     41.026  -141.187
17984.0     35.588  -131.249
18245.6     32.718   -65.909
18511.0     33.010    45.975
18780.2     35.841  -175.552
19053.4     37.145    -4.333
19330.5     38.549  -149.477
19611.7     39.642   106.886
19897.0     40.715    49.301
20186.4     41.394    25.458
20480.0     40.054    59.618
20777.9     39.114   144.273
21080.1     38.422   -83.625
21386.7     37.200   103.829
21697.8     37.389   -21.449
22013.4     36.437   -99.784
22333.6     35.899  -128.391
22658.4     34.409  -103.140
22988.0     33.250   -27.862
23322.4     30.980   104.513
23661.6     28.480   -63.877
24005.8     26.539    15.725
24355.0     25.233   142.553
24709.2     24.210   159.801
25068.6     25.837  -138.958
25433.2     26.206   -23.281
25803.2     27.425   146.860
26178.5     30.993     9.991
26559.3     32.251   -78.246
26945.6     30.910   -90.966
27337.5     29.351   -30.311
27735.2     29.341    84.885
28138.6     29.367   -94.286
28547.9     28.148   132.152
28963.1     24.282   -34.717
29384.4     18.787   -62.690
29811.8     15.798    61.234
30245.4     21.999    19.749
30685.3     24.644   -95.042
31131.7     17.759   125.453
31584.5     21.972   -79.700
32043.9     19.524   122.830
32510.0     17.543    22.455
32982.8     22.093   -64.861
33462.6     16.692   158.910
33949.3     19.283     8.265
34443.1     27.707  -124.038
34944.1     29.893    29.790
35452.4     27.087  -134.081
35968.0     19.241    79.149
36491.2     17.579    42.484
37022.0     16.446   -70.581
37560.5     16.253   -16.609
38106.8     18.030    43.969
38661.1     15.794    59.009
39223.4     16.425   -29.738
39793.9     16.484    91.937
