Freq[Hz]     dBSPL  Phase[Deg]
5.00000     -0.961    47.741
5.07273     -0.505    49.496
5.14651     -0.154    50.777
5.22137     -0.097    50.736
5.29732     -0.039    50.694
5.37437      0.018    50.653
5.45254      0.076    50.612
5.53185     -0.185    50.943
5.61231     -0.781    51.667
5.69394     -1.377    52.392
5.77676     -1.974    53.117
5.86079     -2.578    54.001
5.94604     -3.675    64.319
6.03252     -4.771    74.636
6.12027     -5.868    84.953
6.20929     -6.964    95.270
6.29961     -6.025   106.451
6.39124     -4.635   117.824
6.48420     -3.245   129.197
6.57851     -1.855   140.569
6.67420     -0.792   141.895
6.77128      0.217   141.589
6.86977      1.227   141.283
6.96969      2.125   140.658
7.07107      2.173   137.604
7.17392      2.221   134.550
7.27827      2.269   131.496
7.38413      1.512   128.090
7.49154      0.132   124.412
7.60050     -1.248   120.734
7.71105     -2.953   125.910
7.82321     -6.085   169.972
7.93701     -9.217  -145.966
8.05245    -12.349  -101.904
8.16958     -7.879  -101.792
8.28841     -3.125  -103.322
8.40896      1.630  -104.853
8.53128      3.149  -111.077
8.65537      4.251  -117.907
8.78126      5.352  -124.737
8.90899      4.826  -135.988
9.03857      4.194  -147.529
9.17004      3.580  -161.968
9.30342      3.111   160.514
9.43874      2.642   122.996
9.57603      3.887    91.912
9.71532      7.751    70.658
9.85663     11.616    49.404
10.0000     14.276    37.871
10.1455     16.600    29.047
10.2930     18.687    20.890
10.4427     20.112    14.600
10.5946     21.537     8.309
10.7487     22.530     3.334
10.9051     23.437    -1.379
11.0637     24.180    -5.272
11.2246     24.750    -8.299
11.3879     25.287   -10.929
11.5535     25.701   -12.112
11.7216     26.115   -13.271
11.8921     26.551   -13.035
12.0650     26.986   -12.798
12.2405     27.501   -12.232
12.4186     28.027   -11.623
12.5992     28.558   -11.285
12.7825     29.091   -11.007
12.9684     29.547   -10.802
13.1570     29.985   -10.614
13.3484     30.344    -9.849
13.5426     30.690    -8.991
13.7395     31.076    -7.088
13.9394     31.485    -5.102
14.1421     32.063    -2.782
14.3478     32.694    -0.767
14.5565     33.439     0.595
14.7683     34.175     1.126
14.9831     34.906     1.014
15.2010     35.495     0.148
15.4221     36.024    -0.810
15.6464     36.390    -1.606
15.8740     36.704    -1.747
16.1049     36.974    -1.365
16.3392     37.357     0.266
16.5768     37.854     1.953
16.8179     38.510     3.653
17.0626     39.324     3.986
17.3107     40.139     3.393
17.5625     40.925     1.657
17.8180     41.505    -1.137
18.0771     41.934    -3.959
18.3401     42.206    -6.589
18.6068     42.297    -8.011
18.8775     42.395    -7.814
19.1521     42.613    -6.437
19.4306     43.040    -4.173
19.7133     43.824    -2.482
20.0000     44.741    -2.522
20.2909     45.641    -4.109
20.5860     46.422    -6.979
20.8855     47.005   -10.587
21.1893     47.319   -13.976
21.4975     47.467   -16.257
21.8102     47.568   -17.057
22.1274     47.758   -16.448
22.4492     48.146   -15.048
22.7758     48.762   -13.873
23.1071     49.515   -13.804
23.4432     50.255   -15.009
23.7841     50.869   -17.002
24.1301     51.346   -18.997
24.4811     51.742   -20.489
24.8372     52.136   -21.349
25.1984     52.601   -21.863
25.5649     53.152   -22.538
25.9368     53.742   -23.754
26.3141     54.310   -25.541
26.6968     54.808   -27.628
27.0851     55.236   -29.645
27.4791     55.632   -31.328
27.8788     56.048   -32.685
28.2843     56.512   -33.960
28.6957     57.014   -35.395
29.1131     57.526   -37.077
29.5365     58.022   -38.919
29.9661     58.496   -40.758
30.4020     58.963   -42.481
30.8442     59.445   -44.093
31.2929     59.947   -45.719
31.7480     60.459   -47.438
32.2098     60.967   -49.247
32.6783     61.463   -51.067
33.1536     61.956   -52.828
33.6359     62.459   -54.550
34.1251     62.979   -56.318
34.6215     63.507   -58.212
35.1250     64.034   -60.218
35.6359     64.552   -62.294
36.1543     65.072   -64.394
36.6802     65.595   -66.527
37.2137     66.121   -68.721
37.7550     66.648   -70.970
38.3041     67.176   -73.271
38.8613     67.702   -75.633
39.4265     68.223   -78.088
40.0000     68.735   -80.621
40.5818     69.235   -83.229
41.1721     69.727   -85.980
41.7710     70.199   -88.936
42.3785     70.627   -92.072
42.9949     71.012   -95.179
43.6203     71.389   -98.161
44.2548     71.789  -101.149
44.8985     72.210  -104.387
45.5515     72.623  -107.869
46.2141     73.025  -111.435
46.8863     73.432  -115.007
47.5683     73.855  -118.692
48.2602     74.270  -122.531
48.9621     74.664  -126.421
49.6743     75.039  -130.292
50.3968     75.399  -134.183
51.1299     75.735  -138.137
51.8736     76.041  -142.140
52.6281     76.320  -146.189
53.3936     76.575  -150.297
54.1702     76.809  -154.462
54.9581     77.025  -158.686
55.7575     77.224  -162.965
56.5685     77.405  -167.266
57.3914     77.564  -171.573
58.2261     77.697  -175.859
59.0730     77.794   179.985
59.9323     77.866   176.018
60.8040     77.929   172.203
61.6884     77.986   168.472
62.5857     78.037   164.736
63.4960     78.071   160.984
64.4196     78.087   157.322
65.3566     78.103   153.747
66.3073     78.109   150.203
67.2717     78.100   146.766
68.2502     78.079   143.456
69.2429     78.048   140.285
70.2501     78.018   137.270
71.2719     77.993   134.315
72.3086     77.973   131.340
73.3603     77.945   128.340
74.4274     77.906   125.377
75.5099     77.857   122.420
76.6083     77.770   119.594
77.7226     77.682   117.178
78.8531     77.629   114.860
80.0000     77.578   112.608
81.1636     77.558   110.408
82.3442     77.547   107.998
83.5419     77.527   105.533
84.7570     77.503   102.988
85.9899     77.472   100.467
87.2406     77.437    97.959
88.5096     77.403    95.627
89.7970     77.398    93.337
91.1031     77.391    90.853
92.4282     77.344    88.291
93.7726     77.251    85.799
95.1366     77.117    83.643
96.5204     77.010    81.893
97.9243     76.938    80.271
99.3486     76.903    78.733
100.794     76.893    77.144
102.260     76.904    75.443
103.747     76.916    73.576
105.256     76.925    71.544
106.787     76.925    69.421
108.340     76.915    67.206
109.916     76.861    65.099
111.515     76.807    63.445
113.137     76.791    61.928
114.783     76.798    60.308
116.452     76.808    58.554
118.146     76.824    56.719
119.865     76.839    54.898
121.608     76.863    53.150
123.377     76.890    51.347
125.171     76.907    49.431
126.992     76.924    47.392
128.839     76.951    45.269
130.713     76.977    43.038
132.615     76.969    40.843
134.543     76.929    38.800
136.500     76.906    36.849
138.486     76.907    35.021
140.500     76.917    32.957
142.544     76.926    30.549
144.617     76.857    28.279
146.721     76.759    26.722
148.855     76.781    25.254
151.020     76.876    23.014
153.217     76.861    19.905
155.445     76.674    17.502
157.706     76.560    15.634
160.000     76.348    13.568
162.327     76.204    12.797
164.688     76.219    11.785
167.084     76.292    10.835
169.514     76.508     7.638
171.980     76.199     3.383
174.481     75.810     2.398
177.019     75.681     2.290
179.594     75.625     1.408
182.206     75.558     0.433
184.856     75.534     0.076
187.545     75.628    -0.572
190.273     75.799    -1.790
193.041     75.984    -3.960
195.849     76.020    -6.396
198.697     76.021    -8.646
201.587     76.018   -11.136
204.520     75.906   -13.907
207.494     75.790   -15.599
210.512     75.683   -17.543
213.574     75.695   -20.027
216.681     75.342   -22.286
219.833     75.258   -22.682
223.030     75.159   -24.709
226.274     74.991   -26.229
229.565     74.855   -27.244
232.905     74.668   -28.558
236.292     74.531   -28.659
239.729     74.507   -28.980
243.216     74.570   -29.386
246.754     74.664   -30.580
250.343     74.686   -32.574
253.984     74.686   -33.203
257.678     74.812   -35.194
261.426     74.844   -37.198
265.229     74.931   -39.765
269.087     74.682   -43.351
273.001     74.387   -44.172
276.972     74.346   -44.387
281.000     74.328   -45.183
285.088     74.442   -46.541
289.234     74.483   -48.677
293.441     74.405   -50.312
297.709     74.529   -52.637
302.040     74.436   -55.287
306.433     74.229   -58.844
310.890     73.892   -59.403
315.412     73.990   -60.789
320.000     73.911   -63.424
324.655     73.648   -67.611
329.377     73.145   -67.593
334.168     73.118   -68.467
339.028     72.960   -69.390
343.959     72.967   -70.617
348.962     72.926   -72.527
354.038     72.884   -74.184
359.188     72.872   -76.018
364.412     72.866   -79.423
369.713     72.474   -82.561
375.090     72.291   -83.255
380.546     72.245   -84.426
386.081     72.238   -85.888
391.697     72.377   -87.732
397.394     72.387   -90.522
403.175     72.417   -94.000
409.039     72.196   -96.852
414.989     72.220   -99.086
421.025     72.220  -101.812
427.149     72.226  -104.794
433.362     72.260  -107.946
439.665     72.277  -111.499
446.060     72.191  -116.134
452.548     71.993  -120.526
459.131     71.844  -124.425
465.809     71.597  -128.679
472.584     71.394  -132.592
479.458     71.106  -136.906
486.432     70.832  -140.561
493.507     70.513  -144.725
500.686     70.109  -148.751
507.968     69.676  -152.410
515.357     69.217  -155.774
522.853     68.671  -158.904
530.458     68.085  -161.542
538.174     67.444  -163.573
546.002     66.734  -164.774
553.943     65.969  -165.089
562.001     65.179  -163.842
570.175     64.393  -161.135
578.469     63.775  -156.545
586.883     63.459  -150.427
595.419     63.511  -143.637
604.080     63.964  -137.499
612.866     64.772  -132.639
621.780     65.719  -129.812
630.824     66.755  -129.007
640.000     67.760  -129.744
649.309     68.694  -131.727
658.753     69.558  -134.652
668.335     70.350  -138.406
678.056     71.037  -142.806
687.919     71.644  -147.739
697.925     72.162  -153.117
708.077     72.611  -158.902
718.376     72.997  -164.944
728.825     73.308  -171.261
739.426     73.569  -177.795
750.181     73.768   175.524
761.093     73.915   168.818
772.163     73.980   162.272
783.394     73.970   155.677
794.789     73.877   148.908
806.349     73.733   142.309
818.078     73.510   135.842
829.977     73.218   129.499
842.050     72.860   123.430
854.298     72.436   117.607
866.724     71.963   112.308
879.330     71.446   107.402
892.120     70.901   103.089
905.097     70.356    99.471
918.262     69.845    96.564
931.618     69.402    94.246
945.169     69.063    92.320
958.917     68.864    90.492
972.864     68.786    88.510
987.015     68.821    86.014
1001.37     68.903    82.804
1015.94     69.012    78.697
1030.71     69.114    73.912
1045.71     69.172    68.367
1060.92     69.152    62.235
1076.35     69.061    55.770
1092.00     68.872    49.038
1107.89     68.577    42.099
1124.00     68.195    35.303
1140.35     67.716    28.694
1156.94     67.153    22.352
1173.77     66.542    16.677
1190.84     65.886    11.603
1208.16     65.266     7.247
1225.73     64.692     3.500
1243.56     64.218     0.094
1261.65     63.868    -3.253
1280.00     63.632    -6.921
1298.62     63.477   -11.203
1317.51     63.357   -16.305
1336.67     63.233   -22.068
1356.11     63.052   -28.339
1375.84     62.809   -35.124
1395.85     62.486   -41.851
1416.15     62.116   -48.661
1436.75     61.711   -54.845
1457.65     61.283   -60.558
1478.85     60.898   -65.803
1500.36     60.591   -70.462
1522.19     60.417   -75.024
1544.33     60.360   -79.456
1566.79     60.409   -84.242
1589.58     60.552   -89.405
1612.70     60.713   -95.151
1636.16     60.905  -101.217
1659.95     61.066  -107.386
1684.10     61.202  -113.812
1708.60     61.307  -119.977
1733.45     61.408  -125.785
1758.66     61.496  -131.267
1784.24     61.664  -136.262
1810.19     61.888  -140.952
1836.52     62.203  -145.574
1863.24     62.590  -150.647
1890.34     63.004  -156.233
1917.83     63.389  -162.433
1945.73     63.685  -169.030
1974.03     63.865  -175.625
2002.74     63.940   178.212
2031.87     63.956   172.930
2061.43     64.027   168.578
2091.41     64.234   164.735
2121.83     64.609   160.454
2152.69     65.080   155.029
2184.01     65.495   148.052
2215.77     65.734   139.737
2248.00     65.692   130.957
2280.70     65.329   122.533
2313.87     64.666   115.307
2347.53     63.823   110.452
2381.68     63.011   108.440
2416.32     62.473   108.528
2451.46     62.302   108.998
2487.12     62.375   108.447
2523.30     62.487   106.707
2560.00     62.566   104.505
2597.24     62.628   102.207
2635.01     62.730    99.782
2673.34     62.863    96.972
2712.23     62.991    93.476
2751.68     63.068    89.429
2791.70     63.046    84.804
2832.31     62.900    79.761
2873.50     62.558    74.618
2915.30     61.994    70.020
2957.70     61.224    66.648
3000.72     60.377    65.171
3044.37     59.562    65.503
3088.65     58.800    67.544
3133.58     58.185    71.544
3179.16     57.956    77.987
3225.40     58.407    84.246
3272.31     59.310    87.415
3319.91     60.211    87.186
3368.20     60.933    85.232
3417.19     61.535    82.448
3466.89     62.030    78.736
3517.32     62.346    74.222
3568.48     62.435    69.734
3620.39     62.399    66.115
3673.05     62.335    63.127
3726.47     62.263    60.380
3780.67     62.178    58.127
3835.67     62.128    56.228
3891.46     62.113    54.244
3948.06     62.070    52.456
4005.49     62.104    51.304
4063.75     62.352    49.376
4122.86     62.535    45.206
4182.82     62.339    40.582
4243.66     61.929    37.976
4305.39     61.707    36.610
4368.01     61.493    34.328
4431.55     61.059    32.973
4496.01     60.769    33.965
4561.40     60.838    34.646
4627.75     60.952    34.128
4695.06     61.109    33.287
4763.35     61.310    31.001
4832.64     61.231    27.879
4902.93     60.990    26.218
4974.24     60.846    25.481
5046.60     60.801    24.877
5120.00     60.804    23.881
5194.47     60.679    22.579
5270.03     60.561    23.480
5346.68     60.957    24.317
5424.45     61.395    21.791
5503.35     61.579    18.412
5583.40     61.622    14.451
5664.61     61.317    11.149
5747.01     61.059    10.401
5830.60     61.076     9.720
5915.41     61.200     8.434
6001.45     61.403     5.289
6088.74     61.250     1.338
6177.30     60.983    -1.091
6267.15     60.703    -2.969
6358.31     60.585    -3.911
6450.80     60.496    -6.731
6544.62     60.140    -8.600
6639.82     59.913    -9.874
6736.40     59.636   -10.365
6834.38     59.640   -11.021
6933.79     59.501   -12.946
7034.64     59.405   -14.221
7136.96     59.213   -15.603
7240.77     59.288   -16.751
7346.09     59.287   -20.336
7452.94     58.992   -24.689
7561.35     58.262   -27.548
7671.33     57.769   -27.899
7782.91     57.362   -28.944
7896.12     56.773   -30.161
8010.97     56.144   -28.655
8127.49     55.799   -26.957
8245.71     55.632   -24.454
8365.65     55.485   -24.015
8487.33     55.630   -22.233
8610.78     55.975   -24.414
8736.03     56.007   -30.908
8863.09     55.132   -37.214
8992.01     53.876   -40.438
9122.80     52.867   -39.471
9255.50     52.220   -39.073
9390.12     51.662   -41.408
9526.70     50.859   -43.846
9665.27     49.674   -47.146
9805.86     48.012   -49.319
9948.49     46.103   -45.033
10093.2     44.156   -35.474
10240.0     43.323   -19.135
10388.9     44.137    -4.437
10540.1     45.725     1.840
10693.4     46.621     2.112
10848.9     47.289     0.780
11006.7     47.408    -3.078
11166.8     46.895    -3.172
11329.2     46.597     1.164
11494.0     46.908     4.148
11661.2     46.987     5.154
11830.8     47.372     8.971
12002.9     48.266     7.615
12177.5     48.747     3.150
12354.6     48.685    -4.673
12534.3     47.708   -12.068
12716.6     45.882   -16.850
12901.6     43.387   -14.798
13089.2     40.610     2.462
13279.6     41.348    30.605
13472.8     43.991    40.481
13668.8     45.801    42.865
13867.6     47.166    38.129
14069.3     47.721    34.373
14273.9     47.683    30.737
14481.5     47.710    34.185
14692.2     48.698    35.765
14905.9     49.667    30.938
15122.7     50.064    25.020
15342.7     50.147    18.951
15565.8     49.864    13.398
15792.2     49.357     8.711
16021.9     48.784     6.260
16255.0     48.258     4.044
16491.4     47.391     4.182
16731.3     46.629     6.912
16974.7     46.825    11.110
17221.6     46.628     7.696
17472.1     45.416    11.001
17726.2     45.969    16.898
17984.0     45.613    15.892
18245.6     45.079    23.422
18511.0     46.124    30.294
18780.2     47.193    28.660
19053.4     47.546    24.182
19330.5     47.601    21.089
19611.7     47.550    16.703
19897.0     47.370    12.179
20186.4     47.011     5.193
20480.0     45.645    -0.511
20777.9     44.623    -0.799
21080.1     43.808    -0.823
21386.7     43.348    -2.940
21697.8     42.882    -9.791
22013.4     41.414   -18.111
22333.6     39.474   -22.508
22658.4     36.544   -25.402
22988.0     34.437   -11.955
23322.4     33.016    -5.359
23661.6     31.679     3.161
24005.8     30.724    18.263
24355.0     31.121    38.318
24709.2     32.588    45.184
25068.6     33.947    46.852
25433.2     34.507    47.871
25803.2     35.368    43.273
26178.5     35.065    41.687
26559.3     35.417    35.530
26945.6     34.612    32.014
27337.5     34.736    34.408
27735.2     34.818    24.765
28138.6     33.942    17.259
28547.9     32.679     6.703
28963.1     31.371    -2.400
29384.4     28.238   -10.594
29811.8     23.159   -12.386
30245.4     19.290    16.416
30685.3     20.953   110.948
31131.7     21.604   144.586
31584.5     21.021   161.802
32043.9     21.923   -63.724
32510.0     22.814    73.987
32982.8     20.308    59.202
33462.6     19.313    94.582
33949.3     22.772  -117.784
34443.1     23.070    91.984
34944.1     19.802    12.193
35452.4     22.990   107.440
35968.0     19.618  -117.811
36491.2     18.781   -21.629
37022.0     17.398   -93.820
37560.5     16.609   151.657
38106.8     16.701   169.223
38661.1     16.337    -5.961
39223.4     14.698   -54.058
39793.9     17.460   -84.622
