Freq[Hz]     dBSPL  Phase[Deg]
5.00000     -2.868    46.785
5.07273     -2.412    48.530
5.14651     -2.062    49.800
5.22137     -2.005    49.748
5.29732     -1.948    49.695
5.37437     -1.891    49.643
5.45254     -1.834    49.591
5.53185     -2.095    49.910
5.61231     -2.692    50.622
5.69394     -3.289    51.334
5.77676     -3.886    52.047
5.86079     -4.491    52.919
5.94604     -5.589    63.222
6.03252     -6.686    73.525
6.12027     -7.783    83.828
6.20929     -8.881    94.132
6.29961     -7.943   105.297
6.39124     -6.555   116.653
6.48420     -5.166   128.010
6.57851     -3.777   139.366
6.67420     -2.716   140.673
6.77128     -1.708   140.349
6.86977     -0.700   140.024
6.96969      0.196   139.379
7.07107      0.243   136.303
7.17392      0.289   133.227
7.27827      0.335   130.150
7.38413     -0.425   126.720
7.49154     -1.807   123.016
7.60050     -3.189   119.312
7.71105     -4.896   124.461
7.82321     -8.031   168.492
7.93701    -11.165  -147.477
8.05245    -14.299  -103.446
8.16958     -9.831  -103.370
8.28841     -5.079  -104.936
8.40896     -0.327  -106.502
8.53128      1.190  -112.768
8.65537      2.289  -119.639
8.78126      3.388  -126.510
8.90899      2.860  -137.808
9.03857      2.225  -149.396
9.17004      1.608  -163.883
9.30342      1.138   158.546
9.43874      0.667   120.974
9.57603      1.910    89.835
9.71532      5.773    68.522
9.85663      9.636    47.208
10.0000     12.295    35.611
10.1455     14.618    26.722
10.2930     16.705    18.499
10.4427     18.129    12.138
10.5946     19.554     5.777
10.7487     20.547     0.727
10.9051     21.455    -4.061
11.0637     22.199    -8.032
11.2246     22.771   -11.138
11.3879     23.310   -13.847
11.5535     23.726   -15.113
11.7216     24.143   -16.354
11.8921     24.583   -16.201
12.0650     25.022   -16.048
12.2405     25.542   -15.567
12.4186     26.073   -15.043
12.5992     26.610   -14.789
12.7825     27.148   -14.595
12.9684     27.611   -14.472
13.1570     28.057   -14.366
13.3484     28.424   -13.680
13.5426     28.779   -12.901
13.7395     29.174   -11.074
13.9394     29.592    -9.162
14.1421     30.181    -6.912
14.3478     30.822    -4.965
14.5565     31.576    -3.668
14.7683     32.323    -3.199
14.9831     33.065    -3.370
15.2010     33.665    -4.290
15.4221     34.205    -5.301
15.6464     34.582    -6.146
15.8740     34.907    -6.332
16.1049     35.189    -5.994
16.3392     35.582    -4.403
16.5768     36.090    -2.754
16.8179     36.757    -1.091
17.0626     37.581    -0.792
17.3107     38.405    -1.420
17.5625     39.201    -3.189
17.8180     39.791    -6.017
18.0771     40.228    -8.872
18.3401     40.509   -11.537
18.6068     40.608   -12.995
18.8775     40.714   -12.837
19.1521     40.940   -11.500
19.4306     41.376    -9.279
19.7133     42.168    -7.633
20.0000     43.094    -7.722
20.2909     44.002    -9.359
20.5860     44.792   -12.282
20.8855     45.384   -15.945
21.1893     45.708   -19.393
21.4975     45.867   -21.732
21.8102     45.980   -22.592
22.1274     46.181   -22.042
22.4492     46.582   -20.701
22.7758     47.212   -19.584
23.1071     47.977   -19.571
23.4432     48.733   -20.828
23.7841     49.363   -22.870
24.1301     49.856   -24.909
24.4811     50.267   -26.441
24.8372     50.678   -27.335
25.1984     51.160   -27.878
25.5649     51.728   -28.577
25.9368     52.336   -29.810
26.3141     52.920   -31.610
26.6968     53.435   -33.704
27.0851     53.881   -35.724
27.4791     54.291   -37.405
27.8788     54.724   -38.754
28.2843     55.203   -40.017
28.6957     55.719   -41.436
29.1131     56.246   -43.099
29.5365     56.754   -44.917
29.9661     57.241   -46.730
30.4020     57.718   -48.424
30.8442     58.211   -50.006
31.2929     58.721   -51.602
31.7480     59.240   -53.294
32.2098     59.753   -55.079
32.6783     60.252   -56.884
33.1536     60.747   -58.641
33.6359     61.250   -60.370
34.1251     61.770   -62.164
34.6215     62.298   -64.102
35.1250     62.825   -66.173
35.6359     63.345   -68.336
36.1543     63.867   -70.542
36.6802     64.397   -72.798
37.2137     64.934   -75.128
37.7550     65.475   -77.519
38.3041     66.022   -79.960
38.8613     66.570   -82.454
39.4265     67.120   -85.024
40.0000     67.661   -87.649
40.5818     68.193   -90.323
41.1721     68.719   -93.111
41.7710     69.224   -96.078
42.3785     69.683   -99.198
42.9949     70.098  -102.270
43.6203     70.501  -105.204
44.2548     70.924  -108.140
44.8985     71.365  -111.330
45.5515     71.797  -114.775
46.2141     72.217  -118.317
46.8863     72.641  -121.879
47.5683     73.084  -125.564
48.2602     73.521  -129.404
48.9621     73.939  -133.289
49.6743     74.340  -137.139
50.3968     74.726  -140.990
51.1299     75.087  -144.882
51.8736     75.416  -148.808
52.6281     75.714  -152.773
53.3936     75.984  -156.803
54.1702     76.231  -160.907
54.9581     76.458  -165.096
55.7575     76.670  -169.371
56.5685     76.867  -173.692
57.3914     77.048  -178.028
58.2261     77.207   177.665
59.0730     77.335   173.516
59.9323     77.441   169.596
60.8040     77.536   165.869
61.6884     77.621   162.263
62.5857     77.695   158.667
63.4960     77.744   155.047
64.4196     77.771   151.489
65.3566     77.797   147.975
66.3073     77.815   144.454
67.2717     77.824   141.016
68.2502     77.828   137.705
69.2429     77.828   134.559
70.2501     77.830   131.613
71.2719     77.839   128.773
72.3086     77.847   125.950
73.3603     77.841   123.117
74.4274     77.818   120.313
75.5099     77.782   117.488
76.6083     77.705   114.761
77.7226     77.630   112.415
78.8531     77.593   110.150
80.0000     77.562   107.949
81.1636     77.568   105.812
82.3442     77.584   103.487
83.5419     77.592   101.136
84.7570     77.595    98.737
85.9899     77.589    96.389
87.2406     77.573    94.066
88.5096     77.551    91.911
89.7970     77.555    89.767
91.1031     77.556    87.384
92.4282     77.522    84.884
93.7726     77.447    82.439
95.1366     77.339    80.347
96.5204     77.262    78.703
97.9243     77.219    77.230
99.3486     77.208    75.867
100.794     77.218    74.455
102.260     77.247    72.916
103.747     77.278    71.201
105.256     77.308    69.326
106.787     77.326    67.372
108.340     77.333    65.327
109.916     77.294    63.376
111.515     77.258    61.856
113.137     77.263    60.472
114.783     77.294    59.018
116.452     77.326    57.463
118.146     77.357    55.829
119.865     77.383    54.162
121.608     77.425    52.515
123.377     77.480    50.819
125.171     77.534    49.091
126.992     77.581    47.335
128.839     77.622    45.517
130.713     77.651    43.518
132.615     77.652    41.466
134.543     77.633    39.558
136.500     77.635    37.802
138.486     77.655    36.190
140.500     77.679    34.342
142.544     77.704    32.121
144.617     77.658    30.023
146.721     77.582    28.677
148.855     77.622    27.452
151.020     77.731    25.416
153.217     77.736    22.482
155.445     77.573    20.278
157.706     77.481    18.641
160.000     77.288    16.816
162.327     77.161    16.252
164.688     77.198    15.430
167.084     77.294    14.712
169.514     77.529    11.772
171.980     77.237     7.728
174.481     76.868     6.901
177.019     76.766     6.961
179.594     76.743     6.312
182.206     76.704     5.620
184.856     76.703     5.530
187.545     76.819     5.123
190.273     77.008     4.155
193.041     77.208     2.175
195.849     77.270    -0.121
198.697     77.306    -2.173
201.587     77.334    -4.428
204.520     77.250    -7.004
207.494     77.170    -8.490
210.512     77.096   -10.173
213.574     77.134   -12.442
216.681     76.811   -14.539
219.833     76.762   -14.738
223.030     76.696   -16.561
226.274     76.564   -17.921
229.565     76.469   -18.755
232.905     76.319   -19.869
236.292     76.216   -19.805
239.729     76.228   -19.979
243.216     76.332   -20.300
246.754     76.484   -21.357
250.343     76.550   -23.062
253.984     76.574   -23.550
257.678     76.741   -25.461
261.426     76.805   -27.313
265.229     76.924   -29.877
269.087     76.723   -33.396
273.001     76.450   -34.096
276.972     76.426   -34.387
281.000     76.444   -35.270
285.088     76.587   -36.712
289.234     76.669   -38.979
293.441     76.621   -40.572
297.709     76.740   -43.000
302.040     76.659   -45.909
306.433     76.469   -49.643
310.890     76.132   -50.356
315.412     76.218   -51.985
320.000     76.127   -54.842
324.655     75.838   -59.251
329.377     75.309   -59.452
334.168     75.229   -60.469
339.028     75.007   -61.670
343.959     74.962   -63.022
348.962     74.836   -64.910
354.038     74.693   -66.676
359.188     74.594   -68.461
364.412     74.473   -71.656
369.713     73.956   -74.436
375.090     73.632   -74.785
380.546     73.456   -75.417
386.081     73.310   -76.210
391.697     73.317   -77.183
397.394     73.196   -78.888
403.175     73.104   -81.148
409.039     72.775   -82.595
414.989     72.701   -83.176
421.025     72.624   -84.237
427.149     72.603   -85.304
433.362     72.610   -86.417
439.665     72.662   -87.793
446.060     72.642   -90.081
452.548     72.534   -91.965
459.131     72.536   -93.571
465.809     72.480   -95.228
472.584     72.524   -96.856
479.458     72.546   -98.771
486.432     72.628  -100.272
493.507     72.733  -102.299
500.686     72.829  -104.421
507.968     72.948  -106.374
515.357     73.082  -108.591
522.853     73.228  -110.803
530.458     73.390  -113.165
538.174     73.561  -115.618
546.002     73.711  -118.144
553.943     73.872  -120.802
562.001     74.014  -123.531
570.175     74.152  -126.417
578.469     74.275  -129.471
586.883     74.374  -132.632
595.419     74.459  -135.870
604.080     74.525  -139.247
612.866     74.556  -142.766
621.780     74.572  -146.438
630.824     74.566  -150.186
640.000     74.519  -153.870
649.309     74.446  -157.666
658.753     74.343  -161.418
668.335     74.210  -165.301
678.056     74.044  -169.040
687.919     73.845  -172.690
697.925     73.608  -176.232
708.077     73.349  -179.545
718.376     73.050   177.331
728.825     72.739   174.534
739.426     72.396   172.049
750.181     72.040   169.932
761.093     71.692   168.132
772.163     71.381   166.751
783.394     71.120   165.751
794.789     70.917   165.096
806.349     70.790   164.600
818.078     70.748   164.008
829.977     70.803   163.274
842.050     70.932   162.212
854.298     71.114   160.679
866.724     71.331   158.660
879.330     71.563   156.089
892.120     71.789   152.982
905.097     72.000   149.468
918.262     72.169   145.566
931.618     72.300   141.360
945.169     72.371   136.901
958.917     72.401   132.193
972.864     72.387   127.476
987.015     72.318   122.693
1001.37     72.209   117.855
1015.94     72.068   113.114
1030.71     71.894   108.557
1045.71     71.701   104.031
1060.92     71.497    99.519
1076.35     71.292    95.145
1092.00     71.093    90.792
1107.89     70.898    86.291
1124.00     70.703    81.688
1140.35     70.503    76.954
1156.94     70.279    71.859
1173.77     70.029    66.592
1190.84     69.734    61.174
1208.16     69.388    55.605
1225.73     68.956    49.955
1243.56     68.453    44.354
1261.65     67.876    38.982
1280.00     67.236    34.057
1298.62     66.541    29.766
1317.51     65.847    26.088
1336.67     65.175    23.343
1356.11     64.601    21.313
1375.84     64.158    19.637
1395.85     63.887    18.033
1416.15     63.750    16.110
1436.75     63.727    13.362
1457.65     63.789     9.948
1478.85     63.847     5.909
1500.36     63.944     1.429
1522.19     64.014    -3.422
1544.33     64.139    -8.555
1566.79     64.306   -13.725
1589.58     64.519   -19.211
1612.70     64.812   -24.847
1636.16     65.156   -30.917
1659.95     65.557   -37.441
1684.10     66.000   -44.248
1708.60     66.458   -51.433
1733.45     66.920   -58.813
1758.66     67.407   -66.438
1784.24     67.893   -74.169
1810.19     68.389   -82.028
1836.52     68.876   -90.059
1863.24     69.343   -98.225
1890.34     69.772  -106.498
1917.83     70.142  -114.757
1945.73     70.454  -122.858
1974.03     70.713  -130.649
2002.74     70.933  -138.016
2031.87     71.155  -144.904
2061.43     71.405  -151.478
2091.41     71.697  -158.001
2121.83     72.017  -164.878
2152.69     72.320  -172.157
2184.01     72.546  -179.993
2215.77     72.642   171.831
2248.00     72.574   163.724
2280.70     72.331   156.088
2313.87     71.940   149.401
2347.53     71.471   144.000
2381.68     71.014   140.038
2416.32     70.661   137.156
2451.46     70.451   134.760
2487.12     70.354   132.312
2523.30     70.313   129.533
2560.00     70.284   126.532
2597.24     70.257   123.467
2635.01     70.231   120.354
2673.34     70.206   117.080
2712.23     70.159   113.642
2751.68     70.058   110.102
2791.70     69.911   106.662
2832.31     69.736   103.485
2873.50     69.545   100.479
2915.30     69.339    97.327
2957.70     69.053    94.056
3000.72     68.625    91.010
3044.37     68.045    89.050
3088.65     67.426    88.915
3133.58     66.955    90.663
3179.16     66.776    93.213
3225.40     66.843    95.397
3272.31     67.036    96.937
3319.91     67.312    97.979
3368.20     67.705    98.580
3417.19     68.177    98.217
3466.89     68.643    96.697
3517.32     69.028    94.376
3568.48     69.314    91.811
3620.39     69.532    89.220
3673.05     69.710    86.823
3726.47     69.896    84.602
3780.67     70.136    82.305
3835.67     70.411    79.336
3891.46     70.622    75.506
3948.06     70.685    71.184
4005.49     70.579    67.010
4063.75     70.339    63.397
4122.86     69.991    60.754
4182.82     69.626    59.546
4243.66     69.415    59.691
4305.39     69.450    59.845
4368.01     69.598    58.908
4431.55     69.695    57.222
4496.01     69.734    55.557
4561.40     69.777    53.888
4627.75     69.801    51.966
4695.06     69.736    50.109
4763.35     69.654    49.077
4832.64     69.687    48.488
4902.93     69.831    47.420
4974.24     69.963    45.639
5046.60     70.044    43.634
5120.00     70.078    41.515
5194.47     70.053    39.493
5270.03     70.012    37.894
5346.68     69.999    36.577
5424.45     70.029    35.268
5503.35     70.070    33.906
5583.40     70.121    32.602
5664.61     70.246    31.447
5747.01     70.481    29.689
5830.60     70.711    26.695
5915.41     70.789    22.710
6001.45     70.642    18.639
6088.74     70.323    15.377
6177.30     69.899    13.215
6267.15     69.475    12.752
6358.31     69.269    13.590
6450.80     69.317    14.203
6544.62     69.520    13.773
6639.82     69.723    11.904
6736.40     69.763     9.045
6834.38     69.559     6.494
6933.79     69.264     5.938
7034.64     69.286     7.072
7136.96     69.730     6.794
7240.77     70.212     3.260
7346.09     70.359    -2.581
7452.94     69.995    -8.711
7561.35     69.191   -12.217
7671.33     68.459   -11.789
7782.91     68.180    -9.638
7896.12     68.374    -8.462
8010.97     68.683   -10.631
8127.49     68.591   -14.844
8245.71     67.988   -17.650
8365.65     67.414   -16.819
8487.33     67.327   -14.991
8610.78     67.649   -15.821
8736.03     67.777   -20.681
8863.09     67.375   -26.671
8992.01     66.603   -31.378
9122.80     65.652   -34.516
9255.50     64.759   -35.575
9390.12     64.104   -36.312
9526.70     63.596   -38.349
9665.27     62.916   -42.602
9805.86     61.560   -46.911
9948.49     59.748   -46.392
10093.2     58.115   -39.023
10240.0     57.679   -26.732
10388.9     58.476   -20.169
10540.1     58.784   -21.289
10693.4     58.239   -19.093
10848.9     58.461   -12.321
11006.7     59.426   -11.746
11166.8     59.738   -17.206
11329.2     58.944   -21.259
11494.0     58.099   -17.417
11661.2     58.268   -12.902
11830.8     58.601   -14.089
12002.9     58.132   -16.176
12177.5     57.805   -13.376
12354.6     58.079   -13.895
12534.3     57.741   -19.120
12716.6     56.335   -23.221
12901.6     54.348   -19.076
13089.2     52.670    -9.773
13279.6     51.318    11.059
13472.8     53.323    33.483
13668.8     55.745    35.700
13867.6     56.426    36.121
14069.3     57.807    42.675
14273.9     59.392    40.253
14481.5     60.119    37.799
14692.2     61.087    38.680
14905.9     62.698    35.385
15122.7     63.722    25.011
15342.7     63.573    15.251
15565.8     63.150    11.338
15792.2     63.202     7.037
16021.9     62.883     1.949
16255.0     62.518    -1.002
16491.4     62.239    -5.453
16731.3     61.429   -10.170
16974.7     60.196   -10.727
17221.6     59.399    -7.509
17472.1     59.007    -3.180
17726.2     58.538    -0.683
17984.0     58.384     7.024
18245.6     59.163    12.989
18511.0     60.298    14.634
18780.2     61.437    12.060
19053.4     62.138     5.189
19330.5     62.144    -0.992
19611.7     62.133    -4.623
19897.0     62.514    -9.635
20186.4     62.394   -18.608
20480.0     61.718   -25.301
20777.9     60.921   -31.317
21080.1     60.013   -33.567
21386.7     59.677   -36.636
21697.8     59.010   -42.379
22013.4     58.411   -47.344
22333.6     57.377   -57.669
22658.4     55.165   -65.396
22988.0     52.320   -69.792
23322.4     48.391   -63.124
23661.6     46.188   -40.270
24005.8     46.129   -21.831
24355.0     46.138    -7.447
24709.2     47.645     8.440
25068.6     49.920    12.923
25433.2     51.591     7.953
25803.2     52.241     1.143
26178.5     52.487    -4.570
26559.3     52.558    -8.962
26945.6     52.764   -13.942
27337.5     52.873   -20.572
27735.2     52.708   -26.044
28138.6     52.946   -34.861
28547.9     52.337   -46.967
28963.1     50.785   -59.543
29384.4     48.377   -67.250
29811.8     45.868   -68.579
30245.4     43.686   -71.875
30685.3     39.115   -68.960
31131.7     37.227   -41.719
31584.5     37.981   -32.560
32043.9     37.093   -38.606
32510.0     31.725   -37.770
32982.8     28.991    27.554
33462.6     36.286    36.261
33949.3     38.292    30.298
34443.1     39.022    18.243
34944.1     39.193    11.620
35452.4     38.546     2.366
35968.0     38.308    -1.269
36491.2     37.667   -14.263
37022.0     36.116   -26.223
37560.5     34.164   -37.450
38106.8     32.062   -50.746
38661.1     28.917   -63.070
39223.4     26.885   -86.042
39793.9     23.375   -26.283
