Freq[Hz]     dBSPL  Phase[Deg]
5.00000    -11.157   157.966
5.07273    -13.654   159.761
5.14651    -14.854   147.703
5.22137    -12.433    96.954
5.29732    -10.012    46.206
5.37437     -7.591    -4.543
5.45254     -5.170   -55.291
5.53185     -3.251   -83.072
5.61231     -1.863   -86.557
5.69394     -0.476   -90.041
5.77676      0.912   -93.526
5.86079      2.282   -97.032
5.94604      2.664  -101.785
6.03252      3.045  -106.538
6.12027      3.426  -111.291
6.20929      3.808  -116.044
6.29961      3.432  -121.542
6.39124      2.889  -127.205
6.48420      2.345  -132.868
6.57851      1.802  -138.531
6.67420     -1.196  -148.815
6.77128     -4.592  -159.849
6.86977     -7.988  -170.883
6.96969    -10.610   173.810
7.07107     -7.344   125.991
7.17392     -4.077    78.173
7.27827     -0.811    30.354
7.38413      1.705     5.211
7.49154      3.641    -2.414
7.60050      5.576   -10.038
7.71105      7.256   -17.613
7.82321      7.812   -24.967
7.93701      8.368   -32.321
8.05245      8.924   -39.675
8.16958      8.230   -47.808
8.28841      7.489   -55.970
8.40896      6.749   -64.131
8.53128      1.697   -90.426
8.65537     -3.912  -119.059
8.78126     -9.520  -147.693
8.90899     -3.367   -71.912
9.03857      3.557    10.711
9.17004      9.984    83.106
9.30342     12.457    74.090
9.43874     14.929    65.073
9.57603     16.907    56.399
9.71532     18.127    48.247
9.85663     19.348    40.096
10.0000     19.880    32.498
10.1455     20.220    25.056
10.2930     20.312    18.170
10.4427     19.712    12.839
10.5946     19.112     7.508
10.7487     17.601    10.159
10.9051     15.907    14.402
11.0637     15.487    27.007
11.2246     16.413    48.457
11.3879     17.745    65.715
11.5535     20.558    67.691
11.7216     23.354    69.534
11.8921     25.119    63.495
12.0650     26.884    57.457
12.2405     27.949    49.685
12.4186     28.924    41.689
12.5992     29.358    33.453
12.7825     29.673    25.163
12.9684     29.428    17.713
13.1570     29.052    10.458
13.3484     27.969     6.622
13.5426     26.771     3.340
13.7395     25.256    12.137
13.9394     24.055    22.274
14.1421     25.334    39.068
14.3478     26.959    51.116
14.5565     29.324    52.958
14.7683     31.250    50.868
14.9831     32.837    45.740
15.2010     33.785    39.224
15.4221     34.506    32.618
15.6464     34.714    26.660
15.8740     34.647    22.423
16.1049     34.360    19.559
16.3392     34.020    22.132
16.5768     34.019    26.650
16.8179     34.513    33.701
17.0626     35.836    38.189
17.3107     37.310    40.324
17.5625     38.849    39.380
17.8180     40.089    35.773
18.0771     41.121    31.612
18.3401     41.940    27.153
18.6068     42.507    23.225
18.8775     42.972    20.258
19.1521     43.413    18.118
19.4306     43.883    16.760
19.7133     44.470    15.822
20.0000     45.133    14.557
20.2909     45.812    12.843
20.5860     46.461    10.691
20.8855     47.039     8.284
21.1893     47.514     6.095
21.4975     47.950     4.470
21.8102     48.408     3.404
22.1274     48.937     2.688
22.4492     49.560     1.948
22.7758     50.257     0.783
23.1071     50.977    -1.038
23.4432     51.655    -3.456
23.7841     52.250    -6.181
24.1301     52.770    -8.826
24.4811     53.245   -11.155
24.8372     53.716   -13.100
25.1984     54.224   -14.774
25.5649     54.785   -16.399
25.9368     55.388   -18.184
26.3141     56.011   -20.235
26.6968     56.628   -22.529
27.0851     57.223   -24.960
27.4791     57.795   -27.395
27.8788     58.350   -29.737
28.2843     58.905   -31.961
28.6957     59.470   -34.109
29.1131     60.047   -36.250
29.5365     60.630   -38.447
29.9661     61.211   -40.721
30.4020     61.781   -43.048
30.8442     62.334   -45.384
31.2929     62.879   -47.703
31.7480     63.417   -50.021
32.2098     63.949   -52.368
32.6783     64.469   -54.765
33.1536     64.976   -57.181
33.6359     65.473   -59.582
34.1251     65.970   -61.955
34.6215     66.473   -64.333
35.1250     66.984   -66.774
35.6359     67.503   -69.346
36.1543     68.019   -72.048
36.6802     68.527   -74.844
37.2137     69.025   -77.681
37.7550     69.520   -80.523
38.3041     70.016   -83.393
38.8613     70.514   -86.322
39.4265     71.005   -89.330
40.0000     71.489   -92.396
40.5818     71.966   -95.534
41.1721     72.428   -98.793
41.7710     72.862  -102.157
42.3785     73.255  -105.505
42.9949     73.625  -108.687
43.6203     73.996  -111.704
44.2548     74.386  -114.695
44.8985     74.787  -117.803
45.5515     75.183  -121.026
46.2141     75.571  -124.320
46.8863     75.950  -127.662
47.5683     76.322  -131.041
48.2602     76.691  -134.455
48.9621     77.057  -137.939
49.6743     77.411  -141.516
50.3968     77.746  -145.133
51.1299     78.065  -148.730
51.8736     78.375  -152.316
52.6281     78.675  -155.926
53.3936     78.958  -159.555
54.1702     79.227  -163.199
54.9581     79.479  -166.878
55.7575     79.711  -170.603
56.5685     79.921  -174.372
57.3914     80.110  -178.193
58.2261     80.274   177.956
59.0730     80.415   174.172
59.9323     80.551   170.506
60.8040     80.695   166.884
61.6884     80.833   163.279
62.5857     80.964   159.766
63.4960     81.087   156.313
64.4196     81.186   152.876
65.3566     81.250   149.554
66.3073     81.293   146.311
67.2717     81.303   143.102
68.2502     81.294   140.023
69.2429     81.294   137.012
70.2501     81.306   133.943
71.2719     81.317   130.841
72.3086     81.328   127.748
73.3603     81.321   124.670
74.4274     81.285   121.737
75.5099     81.226   119.037
76.6083     81.151   116.524
77.7226     81.077   114.239
78.8531     81.029   112.012
80.0000     80.998   109.713
81.1636     80.974   107.367
82.3442     80.955   105.031
83.5419     80.933   102.713
84.7570     80.893   100.500
85.9899     80.850    98.430
87.2406     80.806    96.404
88.5096     80.761    94.329
89.7970     80.703    92.184
91.1031     80.627    89.983
92.4282     80.511    87.872
93.7726     80.375    86.171
95.1366     80.272    84.828
96.5204     80.189    83.570
97.9243     80.117    82.471
99.3486     80.074    81.359
100.794     80.044    80.155
102.260     80.025    78.835
103.747     80.007    77.466
105.256     79.991    76.071
106.787     79.972    74.630
108.340     79.920    73.136
109.916     79.827    71.896
111.515     79.761    71.068
113.137     79.742    70.211
114.783     79.737    69.263
116.452     79.728    68.298
118.146     79.725    67.285
119.865     79.734    66.233
121.608     79.749    65.201
123.377     79.775    64.148
125.171     79.800    63.149
126.992     79.809    62.036
128.839     79.815    60.844
130.713     79.809    59.508
132.615     79.780    58.282
134.543     79.760    57.280
136.500     79.756    56.281
138.486     79.747    55.278
140.500     79.742    54.227
142.544     79.738    52.939
144.617     79.671    51.992
146.721     79.636    51.602
148.855     79.693    50.918
151.020     79.750    49.574
153.217     79.724    48.033
155.445     79.648    46.941
157.706     79.584    45.871
160.000     79.439    45.139
162.327     79.388    45.145
164.688     79.412    44.880
167.084     79.540    44.542
169.514     79.624    41.975
171.980     79.288    40.435
174.481     79.127    41.109
177.019     79.128    41.406
179.594     79.139    41.387
182.206     79.138    41.251
184.856     79.190    41.552
187.545     79.321    41.539
190.273     79.493    41.013
193.041     79.636    39.796
195.849     79.680    38.561
198.697     79.717    37.467
201.587     79.790    36.032
204.520     79.714    34.237
207.494     79.563    33.159
210.512     79.423    33.078
213.574     79.399    32.542
216.681     79.364    32.191
219.833     79.249    31.543
223.030     79.175    31.638
226.274     79.067    31.568
229.565     79.060    32.414
232.905     79.141    32.505
236.292     79.193    32.625
239.729     79.288    32.751
243.216     79.406    32.128
246.754     79.450    31.710
250.343     79.495    31.367
253.984     79.613    30.881
257.678     79.663    29.775
261.426     79.645    28.809
265.229     79.629    27.176
269.087     79.260    27.055
273.001     79.206    28.708
276.972     79.337    29.078
281.000     79.388    29.019
285.088     79.430    29.116
289.234     79.482    29.164
293.441     79.630    29.004
297.709     79.690    28.194
302.040     79.744    26.671
306.433     79.472    26.293
310.890     79.596    27.206
315.412     79.687    25.783
320.000     79.574    24.375
324.655     79.280    24.476
329.377     79.326    25.778
334.168     79.355    25.324
339.028     79.380    25.784
343.959     79.473    25.727
348.962     79.581    25.453
354.038     79.665    25.085
359.188     79.840    24.304
364.412     79.840    22.379
369.713     79.806    22.427
375.090     79.970    21.641
380.546     80.084    20.203
386.081     80.095    18.957
391.697     80.116    17.391
397.394     80.243    16.008
403.175     80.105    13.266
409.039     80.016    12.320
414.989     79.995    10.956
421.025     79.992     9.612
427.149     79.933     8.071
433.362     79.899     6.922
439.665     79.948     5.382
446.060     79.792     3.227
452.548     79.744     1.905
459.131     79.613     0.607
465.809     79.618    -0.428
472.584     79.494    -2.171
479.458     79.399    -3.058
486.432     79.347    -4.122
493.507     79.250    -5.181
500.686     79.177    -5.905
507.968     79.138    -6.419
515.357     79.116    -6.892
522.853     79.118    -7.268
530.458     79.149    -7.513
538.174     79.213    -7.674
546.002     79.301    -7.837
553.943     79.417    -8.006
562.001     79.557    -8.152
570.175     79.719    -8.404
578.469     79.893    -8.792
586.883     80.075    -9.376
595.419     80.252   -10.128
604.080     80.432   -11.080
612.866     80.602   -12.196
621.780     80.759   -13.516
630.824     80.904   -14.970
640.000     81.024   -16.540
649.309     81.125   -18.161
658.753     81.199   -19.872
668.335     81.253   -21.658
678.056     81.279   -23.438
687.919     81.283   -25.206
697.925     81.264   -26.915
708.077     81.224   -28.546
718.376     81.168   -30.069
728.825     81.100   -31.487
739.426     81.023   -32.780
750.181     80.945   -33.930
761.093     80.867   -34.969
772.163     80.799   -35.868
783.394     80.740   -36.727
794.789     80.696   -37.522
806.349     80.664   -38.313
818.078     80.646   -39.124
829.977     80.634   -39.979
842.050     80.626   -40.890
854.298     80.615   -41.865
866.724     80.597   -42.868
879.330     80.568   -43.886
892.120     80.527   -44.882
905.097     80.475   -45.793
918.262     80.415   -46.581
931.618     80.358   -47.213
945.169     80.316   -47.637
958.917     80.300   -47.908
972.864     80.318   -48.044
987.015     80.381   -48.171
1001.37     80.495   -48.395
1015.94     80.656   -48.820
1030.71     80.850   -49.548
1045.71     81.067   -50.660
1060.92     81.286   -52.189
1076.35     81.486   -54.095
1092.00     81.654   -56.324
1107.89     81.780   -58.833
1124.00     81.854   -61.484
1140.35     81.874   -64.201
1156.94     81.844   -66.911
1173.77     81.771   -69.463
1190.84     81.660   -71.802
1208.16     81.532   -73.901
1225.73     81.397   -75.762
1243.56     81.267   -77.414
1261.65     81.157   -78.917
1280.00     81.069   -80.349
1298.62     80.996   -81.755
1317.51     80.934   -83.229
1336.67     80.872   -84.751
1356.11     80.808   -86.294
1375.84     80.737   -87.790
1395.85     80.667   -89.231
1416.15     80.608   -90.558
1436.75     80.564   -91.813
1457.65     80.549   -93.066
1478.85     80.552   -94.411
1500.36     80.571   -95.935
1522.19     80.591   -97.616
1544.33     80.592   -99.471
1566.79     80.570  -101.381
1589.58     80.524  -103.236
1612.70     80.467  -104.910
1636.16     80.417  -106.423
1659.95     80.395  -107.805
1684.10     80.410  -109.215
1708.60     80.456  -110.788
1733.45     80.514  -112.636
1758.66     80.554  -114.771
1784.24     80.557  -117.088
1810.19     80.516  -119.392
1836.52     80.436  -121.544
1863.24     80.339  -123.440
1890.34     80.251  -125.091
1917.83     80.186  -126.582
1945.73     80.139  -128.058
1974.03     80.099  -129.578
2002.74     80.053  -131.032
2031.87     80.003  -132.324
2061.43     79.971  -133.370
2091.41     79.992  -134.240
2121.83     80.077  -135.171
2152.69     80.213  -136.421
2184.01     80.360  -138.115
2215.77     80.475  -140.167
2248.00     80.539  -142.312
2280.70     80.565  -144.306
2313.87     80.587  -146.071
2347.53     80.634  -147.705
2381.68     80.709  -149.405
2416.32     80.786  -151.294
2451.46     80.841  -153.291
2487.12     80.868  -155.215
2523.30     80.889  -156.906
2560.00     80.934  -158.391
2597.24     81.020  -159.836
2635.01     81.138  -161.417
2673.34     81.265  -163.173
2712.23     81.394  -165.048
2751.68     81.528  -166.977
2791.70     81.678  -169.012
2832.31     81.840  -171.263
2873.50     81.996  -173.808
2915.30     82.127  -176.625
2957.70     82.214  -179.628
3000.72     82.252   177.323
3044.37     82.248   174.339
3088.65     82.211   171.444
3133.58     82.155   168.663
3179.16     82.074   165.969
3225.40     81.963   163.389
3272.31     81.823   161.059
3319.91     81.680   159.037
3368.20     81.560   157.240
3417.19     81.465   155.469
3466.89     81.374   153.598
3517.32     81.263   151.701
3568.48     81.130   149.929
3620.39     80.991   148.361
3673.05     80.868   146.979
3726.47     80.775   145.581
3780.67     80.691   143.951
3835.67     80.566   142.134
3891.46     80.385   140.445
3948.06     80.190   138.997
4005.49     79.984   137.563
4063.75     79.713   136.203
4122.86     79.385   135.440
4182.82     79.093   135.349
4243.66     78.847   135.395
4305.39     78.585   135.615
4368.01     78.338   136.481
4431.55     78.187   137.689
4496.01     78.096   138.814
4561.40     78.041   140.046
4627.75     78.063   141.281
4695.06     78.132   142.192
4763.35     78.217   142.887
4832.64     78.312   143.252
4902.93     78.363   143.393
4974.24     78.391   143.744
5046.60     78.428   144.084
5120.00     78.426   144.588
5194.47     78.466   145.604
5270.03     78.582   146.420
5346.68     78.675   147.128
5424.45     78.809   148.163
5503.35     79.016   148.998
5583.40     79.267   149.579
5664.61     79.559   149.564
5747.01     79.795   148.985
5830.60     79.984   148.268
5915.41     80.104   147.396
6001.45     80.182   146.950
6088.74     80.304   146.434
6177.30     80.369   145.752
6267.15     80.422   145.338
6358.31     80.476   144.956
6450.80     80.558   144.586
6544.62     80.632   143.794
6639.82     80.652   142.863
6736.40     80.605   141.669
6834.38     80.437   140.681
6933.79     80.179   140.289
7034.64     79.899   140.813
7136.96     79.615   141.804
7240.77     79.314   144.165
7346.09     79.234   147.587
7452.94     79.387   150.842
7561.35     79.681   153.220
7671.33     80.057   154.484
7782.91     80.317   154.576
7896.12     80.487   154.815
8010.97     80.630   155.164
8127.49     80.768   155.261
8245.71     80.809   155.358
8365.65     80.829   155.206
8487.33     80.746   154.762
8610.78     80.469   154.372
8736.03     80.131   155.126
8863.09     79.802   156.873
8992.01     79.667   158.808
9122.80     79.612   160.117
9255.50     79.532   160.585
9390.12     79.427   160.754
9526.70     79.245   160.643
9665.27     78.975   160.721
9805.86     78.633   161.211
9948.49     78.270   163.655
10093.2     78.184   167.083
10240.0     78.329   170.583
10388.9     78.700   173.221
10540.1     79.086   174.401
10693.4     79.418   174.567
10848.9     79.598   174.126
11006.7     79.701   173.970
11166.8     79.705   173.821
11329.2     79.689   174.432
11494.0     79.697   175.286
11661.2     79.841   176.576
11830.8     80.115   176.589
12002.9     80.329   175.153
12177.5     80.256   172.582
12354.6     79.945   170.898
12534.3     79.475   170.007
12716.6     78.952   170.611
12901.6     78.444   172.988
13089.2     78.334   176.175
13279.6     78.410   177.455
13472.8     78.350   176.274
13668.8     77.864   174.940
13867.6     77.024   175.578
14069.3     76.291   179.594
14273.9     75.965  -175.034
14481.5     75.999  -171.689
14692.2     75.943  -170.423
14905.9     75.591  -170.155
15122.7     74.914  -169.651
15342.7     73.896  -166.530
15565.8     72.846  -159.373
15792.2     72.391  -148.087
16021.9     72.903  -137.290
16255.0     73.921  -131.061
16491.4     74.983  -131.411
16731.3     75.066  -133.985
16974.7     74.878  -133.871
17221.6     74.729  -132.782
17472.1     74.698  -132.513
17726.2     74.437  -133.885
17984.0     73.758  -134.217
18245.6     73.082  -132.393
18511.0     72.561  -130.688
18780.2     71.890  -129.515
19053.4     71.013  -127.173
19330.5     70.281  -122.952
19611.7     69.729  -120.506
19897.0     68.802  -117.949
20186.4     67.967  -114.962
20480.0     66.435  -112.057
20777.9     64.989  -102.151
21080.1     64.367   -92.264
21386.7     63.593   -83.264
21697.8     63.097   -73.533
22013.4     62.875   -65.025
22333.6     62.295   -57.089
22658.4     62.097   -48.562
22988.0     61.441   -41.479
23322.4     60.844   -29.292
23661.6     61.215   -18.647
24005.8     61.157   -12.601
24355.0     60.738    -3.181
24709.2     61.000     7.632
25068.6     61.451    14.702
25433.2     61.602    19.927
25803.2     61.514    25.248
26178.5     61.461    32.701
26559.3     61.607    39.682
26945.6     62.243    45.993
27337.5     61.715    49.248
27735.2     62.541    60.028
28138.6     63.058    61.911
28547.9     63.195    64.927
28963.1     63.290    68.320
29384.4     63.302    70.381
29811.8     62.984    72.929
30245.4     62.653    76.059
30685.3     62.208    78.188
31131.7     61.420    79.904
31584.5     60.150    82.439
32043.9     58.889    88.275
32510.0     57.537    93.955
32982.8     56.135   102.583
33462.6     55.189   111.102
33949.3     54.081   117.811
34443.1     52.717   124.958
34944.1     51.211   132.425
35452.4     49.346   142.603
35968.0     47.686   154.801
36491.2     45.643   168.815
37022.0     43.862  -172.209
37560.5     43.216  -150.153
38106.8     42.501  -128.718
38661.1     43.160  -111.543
39223.4     43.207   -97.768
39793.9     43.489   -85.579
