Freq[Hz]     dBSPL  Phase[Deg]
5.00000    -11.186   159.504
5.07273    -13.682   161.322
5.14651    -14.881   149.286
5.22137    -12.460    98.562
5.29732    -10.038    47.839
5.37437     -7.616    -2.885
5.45254     -5.194   -53.608
5.53185     -3.274   -81.362
5.61231     -1.886   -84.818
5.69394     -0.498   -88.274
5.77676      0.891   -91.730
5.86079      2.262   -95.208
5.94604      2.645   -99.928
6.03252      3.028  -104.648
6.12027      3.411  -109.368
6.20929      3.794  -114.088
6.29961      3.419  -119.550
6.39124      2.877  -125.175
6.48420      2.335  -130.801
6.57851      1.793  -136.427
6.67420     -1.204  -146.669
6.77128     -4.599  -157.661
6.86977     -7.994  -168.653
6.96969    -10.615   176.083
7.07107     -7.348   128.311
7.17392     -4.080    80.540
7.27827     -0.812    32.769
7.38413      1.704     7.676
7.49154      3.641     0.103
7.60050      5.577    -7.469
7.71105      7.257   -14.991
7.82321      7.813   -22.288
7.93701      8.370   -29.585
8.05245      8.926   -36.882
8.16958      8.232   -44.953
8.28841      7.491   -53.053
8.40896      6.751   -61.153
8.53128      1.698   -87.381
8.65537     -3.910  -115.949
8.78126     -9.519  -144.516
8.90899     -3.367   -68.666
9.03857      3.556    14.027
9.17004      9.982    86.493
9.30342     12.453    77.550
9.43874     14.924    68.607
9.57603     16.900    60.007
9.71532     18.118    51.933
9.85663     19.337    43.858
10.0000     19.866    36.340
10.1455     20.203    28.976
10.2930     20.292    22.171
10.4427     19.689    16.922
10.5946     19.085    11.674
10.7487     17.570    14.409
10.9051     15.873    18.737
11.0637     15.448    31.428
11.2246     16.368    52.965
11.3879     17.696    70.310
11.5535     20.504    72.376
11.7216     23.294    74.308
11.8921     25.053    68.362
12.0650     26.812    62.415
12.2405     27.870    54.737
12.4186     28.838    46.835
12.5992     29.265    38.695
12.7825     29.572    30.502
12.9684     29.319    23.151
13.1570     28.935    15.995
13.3484     27.842    12.259
13.5426     26.635     9.078
13.7395     25.109    17.977
13.9394     23.897    28.216
14.1421     25.165    45.113
14.3478     26.777    57.265
14.5565     29.129    59.209
14.7683     31.041    57.221
14.9831     32.613    52.195
15.2010     33.545    45.777
15.4221     34.250    39.269
15.6464     34.441    33.405
15.8740     34.355    29.259
16.1049     34.050    26.483
16.3392     33.690    29.135
16.5768     33.669    33.730
16.8179     34.141    40.852
17.0626     35.443    45.400
17.3107     36.894    47.589
17.5625     38.412    46.693
17.8180     39.629    43.122
18.0771     40.638    38.989
18.3401     41.436    34.551
18.6068     41.981    30.634
18.8775     42.425    27.669
19.1521     42.847    25.525
19.4306     43.298    24.157
19.7133     43.869    23.203
20.0000     44.516    21.919
20.2909     45.181    20.185
20.5860     45.818    18.014
20.8855     46.385    15.590
21.1893     46.850    13.392
21.4975     47.279    11.766
21.8102     47.730    10.710
22.1274     48.254    10.015
22.4492     48.871     9.311
22.7758     49.564     8.197
23.1071     50.277     6.443
23.4432     50.948     4.107
23.7841     51.535     1.481
24.1301     52.043    -1.055
24.4811     52.503    -3.264
24.8372     52.958    -5.085
25.1984     53.444    -6.635
25.5649     53.980    -8.140
25.9368     54.555    -9.818
26.3141     55.145   -11.777
26.6968     55.728   -14.001
27.0851     56.286   -16.387
27.4791     56.819   -18.810
27.8788     57.337   -21.172
28.2843     57.854   -23.450
28.6957     58.385   -25.681
29.1131     58.931   -27.933
29.5365     59.487   -30.261
29.9661     60.045   -32.680
30.4020     60.600   -35.158
30.8442     61.142   -37.637
31.2929     61.682   -40.083
31.7480     62.220   -42.505
32.2098     62.755   -44.924
32.6783     63.280   -47.350
33.1536     63.792   -49.755
33.6359     64.293   -52.107
34.1251     64.789   -54.393
34.6215     65.286   -56.656
35.1250     65.787   -58.964
35.6359     66.288   -61.399
36.1543     66.779   -63.971
36.6802     67.257   -66.660
37.2137     67.719   -69.424
37.7550     68.175   -72.232
38.3041     68.632   -75.114
38.8613     69.092   -78.098
39.4265     69.549   -81.199
40.0000     70.003   -84.383
40.5818     70.455   -87.654
41.1721     70.899   -91.044
41.7710     71.320   -94.525
42.3785     71.703   -97.963
42.9949     72.065  -101.204
43.6203     72.428  -104.248
44.2548     72.808  -107.239
44.8985     73.194  -110.329
45.5515     73.570  -113.529
46.2141     73.934  -116.808
46.8863     74.286  -120.155
47.5683     74.628  -123.567
48.2602     74.966  -127.046
48.9621     75.304  -130.622
49.6743     75.632  -134.311
50.3968     75.946  -138.049
51.1299     76.245  -141.764
51.8736     76.540  -145.457
52.6281     76.824  -149.157
53.3936     77.093  -152.863
54.1702     77.343  -156.576
54.9581     77.574  -160.328
55.7575     77.784  -164.140
56.5685     77.971  -168.018
57.3914     78.139  -171.973
58.2261     78.283  -175.976
59.0730     78.409  -179.921
59.9323     78.536   176.258
60.8040     78.674   172.502
61.6884     78.808   168.793
62.5857     78.933   165.206
63.4960     79.048   161.702
64.4196     79.133   158.223
65.3566     79.180   154.854
66.3073     79.201   151.542
67.2717     79.189   148.236
68.2502     79.160   145.032
69.2429     79.141   141.875
70.2501     79.137   138.651
71.2719     79.138   135.398
72.3086     79.137   132.166
73.3603     79.122   128.962
74.4274     79.075   125.916
75.5099     79.005   123.107
76.6083     78.917   120.485
77.7226     78.828   118.085
78.8531     78.765   115.734
80.0000     78.719   113.301
81.1636     78.679   110.808
82.3442     78.646   108.310
83.5419     78.610   105.817
84.7570     78.561   103.422
85.9899     78.511   101.173
87.2406     78.462    98.980
88.5096     78.414    96.760
89.7970     78.350    94.487
91.1031     78.266    92.169
92.4282     78.139    89.937
93.7726     77.989    88.099
95.1366     77.872    86.596
96.5204     77.775    85.157
97.9243     77.692    83.867
99.3486     77.641    82.561
100.794     77.602    81.167
102.260     77.575    79.658
103.747     77.549    78.093
105.256     77.525    76.491
106.787     77.500    74.833
108.340     77.444    73.122
109.916     77.350    71.674
111.515     77.283    70.648
113.137     77.261    69.598
114.783     77.252    68.456
116.452     77.240    67.299
118.146     77.233    66.100
119.865     77.234    64.860
121.608     77.238    63.609
123.377     77.254    62.287
125.171     77.276    60.986
126.992     77.293    59.592
128.839     77.308    58.180
130.713     77.303    56.661
132.615     77.269    55.233
134.543     77.243    53.976
136.500     77.239    52.713
138.486     77.229    51.494
140.500     77.217    50.206
142.544     77.202    48.599
144.617     77.134    47.316
146.721     77.106    46.619
148.855     77.170    45.665
151.020     77.224    44.057
153.217     77.193    42.197
155.445     77.121    40.762
157.706     77.064    39.394
160.000     76.920    38.379
162.327     76.862    38.065
164.688     76.883    37.455
167.084     77.014    36.757
169.514     77.097    33.833
171.980     76.755    31.893
174.481     76.597    32.156
177.019     76.606    32.091
179.594     76.619    31.740
182.206     76.609    31.193
184.856     76.659    31.022
187.545     76.793    30.626
190.273     76.955    29.708
193.041     77.083    27.983
195.849     77.129    26.215
198.697     77.170    24.676
201.587     77.226    22.781
204.520     77.135    20.394
207.494     76.985    18.744
210.512     76.841    18.154
213.574     76.801    17.090
216.681     76.749    16.188
219.833     76.618    14.966
223.030     76.519    14.471
226.274     76.380    13.713
229.565     76.363    13.861
232.905     76.426    13.470
236.292     76.416    13.065
239.729     76.450    12.333
243.216     76.542    10.919
246.754     76.542     9.863
250.343     76.527     8.787
253.984     76.584     7.581
257.678     76.564     5.759
261.426     76.467     4.050
265.229     76.361     1.685
269.087     75.901     0.802
273.001     75.754     1.806
276.972     75.770     1.562
281.000     75.697     0.809
285.088     75.608     0.269
289.234     75.516    -0.286
293.441     75.523    -0.979
297.709     75.429    -2.186
302.040     75.322    -4.106
306.433     74.884    -4.729
310.890     74.814    -4.049
315.412     74.734    -5.649
320.000     74.444    -7.010
324.655     73.976    -6.827
329.377     73.854    -5.292
334.168     73.711    -5.431
339.028     73.577    -4.507
343.959     73.526    -4.063
348.962     73.506    -3.664
354.038     73.469    -3.394
359.188     73.555    -3.414
364.412     73.464    -4.493
369.713     73.366    -3.681
375.090     73.491    -3.659
380.546     73.580    -4.241
386.081     73.570    -4.748
391.697     73.601    -5.583
397.394     73.739    -6.336
403.175     73.642    -8.492
409.039     73.584    -8.919
414.989     73.609    -9.898
421.025     73.659   -10.985
427.149     73.669   -12.332
433.362     73.697   -13.323
439.665     73.810   -14.827
446.060     73.716   -17.029
452.548     73.724   -18.509
459.131     73.651   -20.058
465.809     73.711   -21.388
472.584     73.627   -23.505
479.458     73.566   -24.769
486.432     73.536   -26.355
493.507     73.448   -27.844
500.686     73.375   -29.131
507.968     73.320   -30.170
515.357     73.282   -31.076
522.853     73.249   -31.906
530.458     73.242   -32.522
538.174     73.264   -32.954
546.002     73.307   -33.358
553.943     73.384   -33.703
562.001     73.497   -34.017
570.175     73.631   -34.310
578.469     73.795   -34.841
586.883     73.981   -35.527
595.419     74.168   -36.424
604.080     74.365   -37.574
612.866     74.562   -38.989
621.780     74.751   -40.694
630.824     74.928   -42.633
640.000     75.075   -44.764
649.309     75.199   -47.104
658.753     75.295   -49.588
668.335     75.353   -52.261
678.056     75.366   -55.010
687.919     75.342   -57.856
697.925     75.274   -60.677
708.077     75.159   -63.406
718.376     74.998   -66.049
728.825     74.795   -68.535
739.426     74.554   -70.768
750.181     74.283   -72.704
761.093     73.993   -74.250
772.163     73.707   -75.325
783.394     73.440   -75.996
794.789     73.213   -76.278
806.349     73.063   -76.222
818.078     72.988   -76.022
829.977     73.006   -75.927
842.050     73.109   -76.138
854.298     73.277   -76.788
866.724     73.478   -78.036
879.330     73.687   -79.933
892.120     73.883   -82.471
905.097     74.030   -85.594
918.262     74.118   -89.161
931.618     74.121   -93.128
945.169     74.036   -97.401
958.917     73.848  -101.801
972.864     73.554  -106.186
987.015     73.142  -110.445
1001.37     72.600  -114.418
1015.94     71.948  -117.801
1030.71     71.194  -120.376
1045.71     70.367  -121.834
1060.92     69.500  -121.934
1076.35     68.724  -120.494
1092.00     68.109  -117.643
1107.89     67.749  -114.112
1124.00     67.674  -110.718
1140.35     67.813  -108.254
1156.94     68.064  -107.109
1173.77     68.335  -107.179
1190.84     68.540  -108.219
1208.16     68.675  -109.856
1225.73     68.715  -111.756
1243.56     68.681  -113.713
1261.65     68.599  -115.483
1280.00     68.491  -117.021
1298.62     68.385  -118.417
1317.51     68.295  -119.808
1336.67     68.214  -121.213
1356.11     68.127  -122.765
1375.84     68.020  -124.373
1395.85     67.864  -125.911
1416.15     67.692  -127.197
1436.75     67.512  -127.913
1457.65     67.393  -128.207
1478.85     67.384  -128.211
1500.36     67.517  -128.504
1522.19     67.766  -129.509
1544.33     68.062  -131.602
1566.79     68.294  -134.851
1589.58     68.405  -139.044
1612.70     68.347  -143.648
1636.16     68.094  -148.113
1659.95     67.668  -151.736
1684.10     67.144  -154.049
1708.60     66.659  -154.582
1733.45     66.374  -153.946
1758.66     66.379  -153.176
1784.24     66.605  -153.505
1810.19     66.869  -155.424
1836.52     67.032  -158.684
1863.24     67.008  -162.410
1890.34     66.795  -165.728
1917.83     66.486  -167.945
1945.73     66.234  -168.721
1974.03     66.170  -168.784
2002.74     66.328  -169.034
2031.87     66.594  -170.437
2061.43     66.838  -172.891
2091.41     66.984  -175.788
2121.83     67.065  -178.521
2152.69     67.168   179.234
2184.01     67.375   176.969
2215.77     67.676   173.978
2248.00     67.972   169.791
2280.70     68.145   164.752
2313.87     68.121   159.436
2347.53     67.933   154.686
2381.68     67.676   151.040
2416.32     67.482   148.220
2451.46     67.394   145.635
2487.12     67.348   142.683
2523.30     67.261   139.441
2560.00     67.101   136.542
2597.24     66.949   134.362
2635.01     66.907   132.569
2673.34     66.972   130.433
2712.23     67.038   127.674
2751.68     67.041   124.748
2791.70     67.023   122.216
2832.31     67.079   119.868
2873.50     67.208   117.002
2915.30     67.270   113.296
2957.70     67.178   109.535
3000.72     66.997   106.805
3044.37     66.920   105.020
3088.65     67.008   102.906
3133.58     67.080    99.742
3179.16     66.990    96.411
3225.40     66.830    94.221
3272.31     66.829    92.755
3319.91     66.965    90.522
3368.20     66.997    87.448
3417.19     66.925    85.192
3466.89     67.035    83.787
3517.32     67.383    80.887
3568.48     67.562    75.580
3620.39     67.299    70.238
3673.05     66.869    67.551
3726.47     66.749    66.269
3780.67     66.792    63.089
3835.67     66.514    58.994
3891.46     66.035    56.916
3948.06     65.771    56.203
4005.49     65.545    54.478
4063.75     65.066    54.184
4122.86     64.932    57.032
4182.82     65.404    57.918
4243.66     65.701    55.789
4305.39     65.829    54.929
4368.01     66.381    53.460
4431.55     66.787    47.920
4496.01     66.520    42.399
4561.40     66.214    40.476
4627.75     66.237    37.931
4695.06     65.943    34.253
4763.35     65.569    33.383
4832.64     65.545    32.053
4902.93     65.205    29.912
4974.24     65.010    31.503
5046.60     65.436    30.631
5120.00     65.374    26.878
5194.47     65.246    26.458
5270.03     65.509    23.966
5346.68     65.236    20.392
5424.45     65.141    19.943
5503.35     65.218    16.156
5583.40     64.679    13.856
5664.61     64.657    14.000
5747.01     64.499    10.761
5830.60     64.206    10.970
5915.41     64.379     8.485
6001.45     63.847     5.803
6088.74     63.767     5.998
6177.30     63.408     2.634
6267.15     62.915     4.675
6358.31     62.986     4.192
6450.80     62.757     5.503
6544.62     63.187     4.653
6639.82     62.959     2.927
6736.40     63.307     2.184
6834.38     63.132    -1.951
6933.79     63.158    -3.321
7034.64     62.854    -7.843
7136.96     62.660    -9.535
7240.77     61.971   -14.582
7346.09     61.327   -12.976
7452.94     60.759   -14.678
7561.35     60.454   -11.459
7671.33     60.083   -13.059
7782.91     59.968   -11.095
7896.12     59.306   -11.753
8010.97     59.491    -8.748
8127.49     59.012    -8.040
8245.71     59.388    -8.007
8365.65     59.055    -6.664
8487.33     59.259   -11.508
8610.78     58.597   -11.831
8736.03     57.803   -15.914
8863.09     57.110   -15.163
8992.01     55.576   -13.028
9122.80     54.888    -8.528
9255.50     54.983     2.033
9390.12     55.168     2.855
9526.70     55.975     0.123
9665.27     54.832     0.546
9805.86     55.122     5.945
9948.49     55.817     2.246
10093.2     55.603     2.095
10240.0     55.306     1.668
10388.9     55.602     0.681
10540.1     55.569     1.457
10693.4     55.551     2.677
10848.9     55.949     0.677
11006.7     56.424    -2.860
11166.8     56.362    -7.724
11329.2     55.752   -13.293
11494.0     54.717   -17.441
11661.2     53.812   -16.385
11830.8     53.384   -13.429
12002.9     53.130   -11.682
12177.5     52.896   -11.757
12354.6     52.723   -14.477
12534.3     52.095   -19.318
12716.6     50.733   -23.108
12901.6     48.413   -21.793
13089.2     45.965    -6.142
13279.6     45.990    18.898
13472.8     48.297    33.349
13668.8     50.580    35.244
13867.6     52.189    31.706
14069.3     53.179    24.861
14273.9     53.411    17.401
14481.5     53.141    12.303
14692.2     52.831     9.116
14905.9     52.242     6.470
15122.7     51.751     7.750
15342.7     51.797     9.872
15565.8     52.053     8.484
15792.2     52.238     5.449
16021.9     52.231     0.481
16255.0     51.944    -5.393
16491.4     51.308   -12.098
16731.3     50.297   -18.546
16974.7     48.998   -23.042
17221.6     47.669   -27.878
17472.1     45.582   -34.577
17726.2     42.082   -35.129
17984.0     38.049   -19.134
18245.6     36.806    21.322
18511.0     40.661    42.522
18780.2     43.702    41.188
19053.4     45.091    29.630
19330.5     44.583    21.472
19611.7     44.034    19.388
19897.0     44.157    18.711
20186.4     43.668     9.551
20480.0     41.444     3.199
20777.9     38.926    11.746
21080.1     38.745    26.764
21386.7     39.573    30.047
21697.8     39.414    23.208
22013.4     37.799    19.954
22333.6     35.910    20.041
22658.4     33.799    28.588
22988.0     33.030    43.364
23322.4     33.312    47.282
23661.6     30.097    37.747
24005.8     26.069    69.285
24355.0     27.813   108.411
24709.2     30.688   115.105
25068.6     33.840   137.555
25433.2     37.480   109.704
25803.2     36.766    99.974
26178.5     36.145    95.639
26559.3     36.710    94.415
26945.6     37.109    86.728
27337.5     36.183    71.645
27735.2     33.717    77.485
28138.6     33.633    80.406
28547.9     33.069    82.242
28963.1     33.055    82.458
29384.4     31.572    70.336
29811.8     29.419    76.378
30245.4     27.815    88.732
30685.3     27.447    97.273
31131.7     27.179    98.756
31584.5     25.291   106.826
32043.9     25.209   116.510
32510.0     24.862   119.870
32982.8     25.450   124.727
33462.6     24.907   125.269
33949.3     24.447   112.448
34443.1     23.374   107.940
34944.1     19.963   140.812
35452.4     16.855   -24.259
35968.0     16.676    23.629
36491.2     15.353   -57.165
37022.0     15.469   139.721
37560.5     15.161  -145.794
38106.8     16.326   -75.337
38661.1     14.309   172.128
39223.4     15.628    53.901
39793.9     14.854  -112.917
