Freq[Hz]     dBSPL  Phase[Deg]
5.00000     -9.280   179.036
5.07273    -11.777  -178.863
5.14651    -12.977   169.391
5.22137    -10.556   118.972
5.29732     -8.135    68.554
5.37437     -5.714    18.136
5.45254     -3.293   -32.283
5.53185     -1.374   -59.721
5.61231      0.013   -62.851
5.69394      1.400   -65.981
5.77676      2.787   -69.110
5.86079      4.157   -72.261
5.94604      4.538   -76.634
6.03252      4.919   -81.007
6.12027      5.300   -85.379
6.20929      5.681   -89.752
6.29961      5.305   -94.849
6.39124      4.760  -100.107
6.48420      4.216  -105.365
6.57851      3.672  -110.622
6.67420      0.673  -120.479
6.77128     -2.724  -131.082
6.86977     -6.121  -141.685
6.96969     -8.745  -156.559
7.07107     -5.480   156.079
7.17392     -2.215   108.716
7.27827      1.049    61.354
7.38413      3.563    36.681
7.49154      5.496    29.537
7.60050      7.429    22.394
7.71105      9.106    15.305
7.82321      9.659     8.457
7.93701     10.212     1.609
8.05245     10.764    -5.239
8.16958     10.066   -12.843
8.28841      9.321   -20.474
8.40896      8.576   -28.106
8.53128      3.519   -53.849
8.65537     -2.094   -81.928
8.78126     -7.707  -110.008
8.90899     -1.560   -33.651
9.03857      5.358    49.549
9.17004     11.778   122.524
9.30342     14.244   114.107
9.43874     16.710   105.691
9.57603     18.680    97.625
9.71532     19.892    90.095
9.85663     21.104    82.565
10.0000     21.627    75.606
10.1455     21.957    68.806
10.2930     22.040    62.569
10.4427     21.430    57.902
10.5946     20.820    53.235
10.7487     19.297    56.566
10.9051     17.591    61.494
11.0637     17.159    74.793
11.2246     18.072    96.947
11.3879     19.391   114.912
11.5535     22.191   117.612
11.7216     24.974   120.179
11.8921     26.724   114.883
12.0650     28.474   109.587
12.2405     29.524   102.574
12.4186     30.483    95.340
12.5992     30.900    87.880
12.7825     31.198    80.371
12.9684     30.935    73.716
13.1570     30.542    67.260
13.3484     29.441    64.237
13.5426     28.224    61.772
13.7395     26.689    71.402
13.9394     25.467    82.376
14.1421     26.726   100.022
14.3478     28.329   112.927
14.5565     30.672   115.637
14.7683     32.575   114.425
14.9831     34.138   110.182
15.2010     35.062   104.564
15.4221     35.759    98.861
15.6464     35.941    93.819
15.8740     35.848    90.504
16.1049     35.535    88.570
16.3392     35.168    92.084
16.5768     35.140    97.550
16.8179     35.605   105.556
17.0626     36.900   111.008
17.3107     38.344   114.113
17.5625     39.854   114.146
17.8180     41.064   111.526
18.0771     42.066   108.357
18.3401     42.856   104.897
18.6068     43.393   101.977
18.8775     43.828   100.027
19.1521     44.240    98.911
19.4306     44.681    98.586
19.7133     45.241    98.693
20.0000     45.878    98.484
20.2909     46.530    97.838
20.5860     47.154    96.768
20.8855     47.707    95.457
21.1893     48.158    94.386
21.4975     48.572    93.896
21.8102     49.008    93.988
22.1274     49.517    94.452
22.4492     50.119    94.916
22.7758     50.796    94.982
23.1071     51.496    94.418
23.4432     52.152    93.286
23.7841     52.726    91.879
24.1301     53.223    90.579
24.4811     53.672    89.624
24.8372     54.117    89.078
25.1984     54.596    88.827
25.5649     55.125    88.648
25.9368     55.694    88.327
26.3141     56.279    87.756
26.6968     56.856    86.955
27.0851     57.409    86.027
27.4791     57.935    85.100
27.8788     58.444    84.273
28.2843     58.950    83.565
28.6957     59.467    82.937
29.1131     59.995    82.318
29.5365     60.530    81.647
29.9661     61.063    80.907
30.4020     61.588    80.122
30.8442     62.097    79.347
31.2929     62.600    78.607
31.7480     63.097    77.891
32.2098     63.589    77.173
32.6783     64.072    76.442
33.1536     64.541    75.726
33.6359     65.001    75.059
34.1251     65.457    74.460
34.6215     65.919    73.889
35.1250     66.386    73.286
35.6359     66.858    72.579
36.1543     67.323    71.764
36.6802     67.778    70.869
37.2137     68.220    69.945
37.7550     68.657    69.023
38.3041     69.095    68.081
38.8613     69.534    67.085
39.4265     69.967    66.020
40.0000     70.394    64.910
40.5818     70.815    63.747
41.1721     71.224    62.487
41.7710     71.605    61.151
42.3785     71.947    59.866
42.9949     72.265    58.782
43.6203     72.584    57.898
44.2548     72.921    57.072
44.8985     73.266    56.159
45.5515     73.605    55.154
46.2141     73.933    54.098
46.8863     74.253    53.011
47.5683     74.565    51.905
48.2602     74.875    50.782
48.9621     75.183    49.610
49.6743     75.480    48.374
50.3968     75.760    47.128
51.1299     76.023    45.939
51.8736     76.280    44.797
52.6281     76.524    43.668
53.3936     76.753    42.554
54.1702     76.964    41.456
54.9581     77.159    40.350
55.7575     77.334    39.227
56.5685     77.488    38.087
57.3914     77.621    36.925
58.2261     77.730    35.768
59.0730     77.816    34.717
59.9323     77.899    33.821
60.8040     77.989    33.007
61.6884     78.073    32.244
62.5857     78.150    31.602
63.4960     78.222    31.053
64.4196     78.271    30.554
65.3566     78.288    30.216
66.3073     78.287    30.011
67.2717     78.255    29.910
68.2502     78.204    30.011
69.2429     78.159    30.247
70.2501     78.120    30.481
71.2719     78.077    30.718
72.3086     78.028    30.984
73.3603     77.963    31.277
74.4274     77.868    31.729
75.5099     77.757    32.447
76.6083     77.635    33.406
77.7226     77.517    34.668
78.8531     77.425    36.070
80.0000     77.348    37.474
81.1636     77.272    38.890
82.3442     77.197    40.350
83.5419     77.118    41.852
84.7570     77.023    43.484
85.9899     76.928    45.298
87.2406     76.836    47.213
88.5096     76.745    49.154
89.7970     76.640    51.099
91.1031     76.515    53.054
92.4282     76.347    55.148
93.7726     76.158    57.688
95.1366     76.004    60.621
96.5204     75.873    63.687
97.9243     75.758    66.977
99.3486     75.675    70.334
100.794     75.603    73.685
102.260     75.541    76.995
103.747     75.477    80.312
105.256     75.414    83.646
106.787     75.350    86.979
108.340     75.256    90.317
109.916     75.127    93.984
111.515     75.025    98.144
113.137     74.971   102.347
114.783     74.932   106.526
116.452     74.894   110.768
118.146     74.866   115.068
119.865     74.846   119.447
121.608     74.827   123.940
123.377     74.811   128.456
125.171     74.794   133.035
126.992     74.770   137.536
128.839     74.755   142.058
130.713     74.730   146.580
132.615     74.678   151.336
134.543     74.628   156.500
136.500     74.596   161.771
138.486     74.567   166.458
140.500     74.543   171.693
142.544     74.516   177.280
144.617     74.427  -177.384
146.721     74.373  -171.518
148.855     74.415  -165.374
151.020     74.459  -159.858
153.217     74.417  -154.521
155.445     74.322  -148.761
157.706     74.241  -143.019
160.000     74.084  -136.387
162.327     74.026  -128.995
164.688     74.045  -122.424
167.084     74.166  -115.358
169.514     74.243  -109.952
171.980     73.899  -103.519
174.481     73.731   -95.464
177.019     73.727   -87.804
179.594     73.737   -79.884
182.206     73.732   -71.516
184.856     73.783   -62.747
187.545     73.919   -54.844
190.273     74.094   -46.836
193.041     74.229   -39.565
195.849     74.271   -32.395
198.697     74.317   -24.495
201.587     74.394   -16.904
204.520     74.320    -9.734
207.494     74.180    -1.847
210.512     74.048     7.651
213.574     74.025    16.661
216.681     73.992    25.258
219.833     73.879    34.121
223.030     73.802    44.260
226.274     73.693    54.176
229.565     73.692    65.014
232.905     73.771    75.178
236.292     73.796    85.292
239.729     73.873    95.749
243.216     74.001   105.519
246.754     74.039   115.627
250.343     74.064   126.283
253.984     74.164   136.784
257.678     74.186   146.698
261.426     74.123   157.239
265.229     74.064   167.062
269.087     73.644   178.435
273.001     73.526  -168.491
276.972     73.606  -156.676
281.000     73.576  -144.608
285.088     73.516  -132.005
289.234     73.475  -119.379
293.441     73.509  -106.939
297.709     73.461   -95.089
302.040     73.377   -83.822
306.433     72.947   -70.914
310.890     72.903   -56.113
315.412     72.821   -43.537
320.000     72.516   -30.861
324.655     72.036   -16.606
329.377     71.874    -0.947
334.168     71.675    14.063
339.028     71.482    30.212
343.959     71.346    45.988
348.962     71.229    61.670
354.038     71.091    77.410
359.188     71.049    93.482
364.412     70.829   109.238
369.713     70.586   127.094
375.090     70.551   144.257
380.546     70.484   161.467
386.081     70.343   178.988
391.697     70.233  -163.002
397.394     70.250  -144.185
403.175     70.048  -127.241
409.039     69.909  -107.869
414.989     69.881   -88.370
421.025     69.909   -68.865
427.149     69.922   -49.664
433.362     69.985   -30.074
439.665     70.158    -9.872
446.060     70.155     9.518
452.548     70.293    29.522
459.131     70.368    49.994
465.809     70.586    71.058
472.584     70.691    91.114
479.458     70.821   111.764
486.432     71.001   132.587
493.507     71.124   153.709
500.686     71.249   175.502
507.968     71.394  -162.850
515.357     71.532  -141.245
522.853     71.654  -119.157
530.458     71.768   -96.506
538.174     71.871   -73.910
546.002     71.972   -51.316
553.943     72.047   -28.114
562.001     72.109    -4.356
570.175     72.157    19.970
578.469     72.180    44.790
586.883     72.182    69.601
595.419     72.166    94.414
604.080     72.112   119.753
612.866     72.038   145.595
621.780     71.936   172.027
630.824     71.797  -160.940
640.000     71.636  -133.902
649.309     71.443  -106.714
658.753     71.214   -78.822
668.335     70.939   -49.765
678.056     70.632   -20.465
687.919     70.291     9.647
697.925     69.903    40.630
708.077     69.489    71.953
718.376     69.052   104.345
728.825     68.592   137.899
739.426     68.125   172.638
750.181     67.685  -151.334
761.093     67.318  -113.938
772.163     67.059   -75.896
783.394     66.929   -36.627
794.789     66.964     3.933
806.349     67.176    44.254
818.078     67.552    84.677
829.977     68.033   124.811
842.050     68.596   164.659
854.298     69.194  -155.855
866.724     69.781  -117.202
879.330     70.352   -78.191
892.120     70.885   -39.279
905.097     71.370    -0.362
918.262     71.791    38.598
931.618     72.155    77.734
945.169     72.451   117.037
958.917     72.685   156.617
972.864     72.844  -163.485
987.015     72.925  -123.275
1001.37     72.933   -82.228
1015.94     72.862   -40.777
1030.71     72.708     0.576
1045.71     72.464    42.843
1060.92     72.124    86.076
1076.35     71.689   129.184
1092.00     71.146   172.800
1107.89     70.481  -142.609
1124.00     69.684   -97.519
1140.35     68.737   -51.976
1156.94     67.617    -5.396
1173.77     66.294    41.765
1190.84     64.733    89.488
1208.16     62.865   137.761
1225.73     60.589  -172.650
1243.56     57.708  -121.767
1261.65     53.860   -69.103
1280.00     48.081   -12.823
1298.62     37.195    80.733
1317.51     40.838  -124.709
1336.67     47.266   -56.793
1356.11     49.770    -0.099
1375.84     50.777    55.899
1395.85     50.749   111.769
1416.15     49.822   166.175
1436.75     48.058  -141.442
1457.65     45.230   -95.870
1478.85     42.425   -67.166
1500.36     43.531   -48.624
1522.19     47.067    -8.641
1544.33     50.012    45.857
1566.79     52.179   107.953
1589.58     53.852   174.300
1612.70     55.034  -116.802
1636.16     56.005   -45.257
1659.95     56.759    28.530
1684.10     57.353   104.204
1708.60     57.857  -178.647
1733.45     58.260  -100.308
1758.66     58.576   -19.903
1784.24     58.779    62.295
1810.19     58.902   145.482
1836.52     58.987  -128.540
1863.24     59.085   -40.510
1890.34     59.283    49.376
1917.83     59.603   140.878
1945.73     60.076  -126.987
1974.03     60.605   -33.786
2002.74     61.134    59.509
2031.87     61.572   153.088
2061.43     61.878  -112.490
2091.41     62.028   -16.236
2121.83     62.053    82.404
2152.69     62.000  -177.404
2184.01     61.963   -74.414
2215.77     62.036    31.112
2248.00     62.277   137.951
2280.70     62.650  -114.477
2313.87     63.086    -6.020
2347.53     63.492   103.364
2381.68     63.815  -146.723
2416.32     64.021   -35.329
2451.46     64.113    77.882
2487.12     64.099  -166.742
2523.30     64.009   -49.003
2560.00     63.893    71.314
2597.24     63.795  -166.360
2635.01     63.799   -41.578
2673.34     63.925    85.275
2712.23     64.198  -146.465
2751.68     64.559   -16.504
2791.70     64.925   114.340
2832.31     65.228  -113.791
2873.50     65.442    19.395
2915.30     65.560   154.276
2957.70     65.593   -68.328
3000.72     65.573    71.136
3044.37     65.522  -147.419
3088.65     65.473    -3.400
3133.58     65.424   142.358
3179.16     65.369   -69.772
3225.40     65.253    80.076
3272.31     65.005  -128.558
3319.91     64.555    25.481
3368.20     63.929  -177.000
3417.19     63.244   -15.564
3466.89     62.721   150.197
3517.32     62.536   -40.489
3568.48     62.595   129.379
3620.39     62.631   -59.888
3673.05     62.485   113.182
3726.47     62.158   -70.538
3780.67     61.838   109.628
3835.67     61.726   -66.886
3891.46     61.859   118.900
3948.06     62.048   -54.624
4005.49     62.058   132.791
4063.75     61.765   -36.242
4122.86     61.261   158.815
4182.82     60.854    -1.654
4243.66     60.782  -158.136
4305.39     60.862    45.564
4368.01     60.675  -109.802
4431.55     59.957    98.048
4496.01     58.839   -47.488
4561.40     57.933   175.351
4627.75     57.888    42.966
4695.06     58.419   -89.204
4763.35     58.788   137.962
4832.64     58.762     8.005
4902.93     58.668  -115.822
4974.24     59.020   125.007
5046.60     59.700     6.245
5120.00     60.197  -112.061
5194.47     60.234   132.837
5270.03     60.025    22.914
5346.68     60.036   -81.447
5424.45     60.362   177.120
5503.35     60.542    76.555
5583.40     60.216   -20.597
5664.61     59.604  -110.256
5747.01     59.400   166.900
5830.60     59.753    85.737
5915.41     59.947     5.366
6001.45     59.537   -71.732
6088.74     58.894  -141.782
6177.30     58.604   154.791
6267.15     58.486    94.087
6358.31     58.182    37.588
6450.80     57.921   -13.505
6544.62     57.816   -60.874
6639.82     57.663  -104.132
6736.40     57.425  -142.851
6834.38     57.039  -177.370
6933.79     56.566   154.489
7034.64     56.394   131.349
7136.96     56.178   109.368
7240.77     55.296    92.672
7346.09     54.311    85.685
7452.94     53.807    82.954
7561.35     53.008    83.507
7671.33     51.764    92.135
7782.91     50.801   109.610
7896.12     50.455   133.214
8010.97     50.179   159.565
8127.49     49.623  -165.015
8245.71     50.178  -123.273
8365.65     50.604   -83.250
8487.33     50.599   -34.730
8610.78     51.161    16.764
8736.03     50.809    67.247
8863.09     48.579   130.574
8992.01     47.667  -144.940
9122.80     48.206   -64.659
9255.50     47.978    20.170
9390.12     48.862   111.639
9526.70     48.770  -162.757
9665.27     46.953   -60.837
9805.86     47.210    54.862
9948.49     47.211   169.290
10093.2     47.155   -65.555
10240.0     47.761    62.760
10388.9     46.980  -166.128
10540.1     45.625   -19.582
10693.4     44.666   134.797
10848.9     43.563   -58.340
11006.7     43.559   114.978
11166.8     42.849   -69.162
11329.2     42.306   121.670
11494.0     42.614   -45.442
11661.2     42.322   157.089
11830.8     42.581     6.576
12002.9     42.158  -137.386
12177.5     42.112    89.621
12354.6     41.725   -37.812
12534.3     41.527  -150.570
12716.6     41.688    97.695
12901.6     40.857    -2.207
13089.2     40.350   -90.029
13279.6     40.352  -168.967
13472.8     40.126   115.878
13668.8     38.876    56.620
13867.6     39.029     9.289
14069.3     39.768   -27.348
14273.9     40.909   -64.969
14481.5     41.010   -91.642
14692.2     40.952  -106.419
14905.9     41.243  -107.914
15122.7     41.712  -103.783
15342.7     42.101   -88.003
15565.8     42.184   -65.006
15792.2     42.706   -30.024
16021.9     42.439     9.206
16255.0     41.967    62.933
16491.4     40.587   125.616
16731.3     38.522  -156.678
16974.7     35.132   -55.789
17221.6     33.678    66.405
17472.1     33.426  -166.344
17726.2     32.266   -26.647
17984.0     31.267   128.396
18245.6     31.486   -60.260
18511.0     33.491   122.183
18780.2     36.452   -54.783
19053.4     37.290   127.426
19330.5     37.097   -36.051
19611.7     35.846   173.393
19897.0     33.333    46.623
20186.4     32.522   -62.307
20480.0     30.605  -164.938
20777.9     26.698   119.105
21080.1     28.170    80.349
21386.7     30.644    16.551
21697.8     30.160   -31.961
22013.4     29.694   -56.485
22333.6     29.168   -52.957
22658.4     28.575   -48.787
22988.0     28.505   -20.858
23322.4     27.630     6.595
23661.6     20.241   -60.658
24005.8     18.436   -56.202
24355.0     25.017   -23.929
24709.2     29.791    63.756
25068.6     35.115   154.714
25433.2     31.086  -125.086
25803.2     26.234    37.386
26178.5     21.003  -138.246
26559.3     15.981    73.965
26945.6     18.977   108.874
27337.5     19.184   -71.989
27735.2     19.913   121.290
28138.6     19.787   -66.011
28547.9     21.266  -116.853
28963.1     24.760   -73.741
29384.4     23.448  -116.532
29811.8     22.661  -114.780
30245.4     19.769    94.986
30685.3     21.651   124.777
31131.7     22.284   -17.959
31584.5     20.102   118.078
32043.9     16.614   106.384
32510.0     18.008   126.826
32982.8     17.816    16.384
33462.6     17.576   164.416
33949.3     16.297    63.085
34443.1     15.073    63.746
34944.1     14.326    -3.537
35452.4     13.860  -111.389
35968.0     14.046  -137.541
36491.2     14.697  -150.776
37022.0     15.727   121.909
37560.5     15.247   -41.960
38106.8     14.163  -130.700
38661.1     14.892  -117.436
39223.4     14.005   -20.054
39793.9     14.154   129.157
