Freq[Hz]     dBSPL  Phase[Deg]
5.00000    -11.037   157.447
5.07273    -13.532   159.236
5.14651    -14.730   147.172
5.22137    -12.307    96.418
5.29732     -9.884    45.664
5.37437     -7.461    -5.090
5.45254     -5.038   -55.843
5.53185     -3.117   -83.628
5.61231     -1.727   -87.117
5.69394     -0.338   -90.605
5.77676      1.052   -94.093
5.86079      2.424   -97.603
5.94604      2.808  -102.357
6.03252      3.192  -107.112
6.12027      3.576  -111.866
6.20929      3.959  -116.621
6.29961      3.586  -122.118
6.39124      3.046  -127.780
6.48420      2.505  -133.441
6.57851      1.965  -139.103
6.67420     -1.031  -149.383
6.77128     -4.424  -160.413
6.86977     -7.818  -171.443
6.96969    -10.437   173.254
7.07107     -7.168   125.443
7.17392     -3.898    77.632
7.27827     -0.629    29.821
7.38413      1.890     4.687
7.49154      3.828    -2.927
7.60050      5.766   -10.541
7.71105      7.449   -18.104
7.82321      8.007   -25.444
7.93701      8.565   -32.784
8.05245      9.124   -40.124
8.16958      8.432   -48.240
8.28841      7.694   -56.385
8.40896      6.955   -64.529
8.53128      1.905   -90.804
8.65537     -3.701  -119.418
8.78126     -9.307  -148.031
8.90899     -3.153   -72.228
9.03857      3.773    10.417
9.17004     10.201    82.834
9.30342     12.675    73.842
9.43874     15.148    64.849
9.57603     17.126    56.199
9.71532     18.347    48.072
9.85663     19.568    39.946
10.0000     20.100    32.374
10.1455     20.439    24.956
10.2930     20.531    18.096
10.4427     19.930    12.790
10.5946     19.329     7.484
10.7487     17.816    10.159
10.9051     16.121    14.427
11.0637     15.699    27.055
11.2246     16.622    48.527
11.3879     17.952    65.807
11.5535     20.764    67.804
11.7216     23.557    69.667
11.8921     25.319    63.646
12.0650     27.081    57.625
12.2405     28.142    49.868
12.4186     29.114    41.887
12.5992     29.544    33.662
12.7825     29.855    25.385
12.9684     29.606    17.943
13.1570     29.227    10.697
13.3484     28.140     6.865
13.5426     26.939     3.588
13.7395     25.419    12.386
13.9394     24.213    22.524
14.1421     25.489    39.316
14.3478     27.109    51.361
14.5565     29.471    53.197
14.7683     31.393    51.100
14.9831     32.975    45.964
15.2010     33.919    39.437
15.4221     34.637    32.819
15.6464     34.841    26.847
15.8740     34.770    22.594
16.1049     34.480    19.713
16.3392     34.137    22.266
16.5768     34.132    26.763
16.8179     34.623    33.791
17.0626     35.943    38.253
17.3107     37.414    40.361
17.5625     38.951    39.389
17.8180     40.189    35.750
18.0771     41.219    31.554
18.3401     42.036    27.060
18.6068     42.601    23.093
18.8775     43.066    20.086
19.1521     43.507    17.904
19.4306     43.977    16.503
19.7133     44.566    15.519
20.0000     45.231    14.207
20.2909     45.913    12.447
20.5860     46.566    10.250
20.8855     47.148     7.798
21.1893     47.629     5.568
21.4975     48.072     3.905
21.8102     48.538     2.806
22.1274     49.076     2.064
22.4492     49.708     1.305
22.7758     50.416     0.130
23.1071     51.146    -1.691
23.4432     51.835    -4.098
23.7841     52.441    -6.799
24.1301     52.971    -9.410
24.4811     53.455   -11.692
24.8372     53.935   -13.579
25.1984     54.449   -15.186
25.5649     55.014   -16.736
25.9368     55.621   -18.441
26.3141     56.244   -20.410
26.6968     56.859   -22.621
27.0851     57.449   -24.973
27.4791     58.013   -27.339
27.8788     58.560   -29.620
28.2843     59.104   -31.799
28.6957     59.657   -33.916
29.1131     60.222   -36.044
29.5365     60.793   -38.247
29.9661     61.361   -40.544
30.4020     61.920   -42.912
30.8442     62.465   -45.304
31.2929     63.003   -47.691
31.7480     63.537   -50.084
32.2098     64.067   -52.510
32.6783     64.589   -54.982
33.1536     65.101   -57.467
33.6359     65.605   -59.927
34.1251     66.109   -62.343
34.6215     66.620   -64.748
35.1250     67.142   -67.200
35.6359     67.669   -69.766
36.1543     68.193   -72.448
36.6802     68.706   -75.215
37.2137     69.208   -78.017
37.7550     69.705   -80.825
38.3041     70.201   -83.663
38.8613     70.698   -86.569
39.4265     71.187   -89.564
40.0000     71.669   -92.627
40.5818     72.143   -95.771
41.1721     72.605   -99.044
41.7710     73.039  -102.426
42.3785     73.434  -105.792
42.9949     73.807  -108.988
43.6203     74.184  -112.011
44.2548     74.579  -114.999
44.8985     74.986  -118.093
45.5515     75.387  -121.292
46.2141     75.778  -124.552
46.8863     76.160  -127.851
47.5683     76.534  -131.184
48.2602     76.902  -134.549
48.9621     77.265  -137.988
49.6743     77.615  -141.525
50.3968     77.944  -145.112
51.1299     78.256  -148.692
51.8736     78.560  -152.277
52.6281     78.853  -155.902
53.3936     79.132  -159.561
54.1702     79.398  -163.244
54.9581     79.652  -166.964
55.7575     79.888  -170.720
56.5685     80.106  -174.499
57.3914     80.304  -178.301
58.2261     80.474   177.900
59.0730     80.617   174.197
59.9323     80.750   170.624
60.8040     80.884   167.087
61.6884     81.006   163.534
62.5857     81.116   160.022
63.4960     81.220   156.509
64.4196     81.304   152.959
65.3566     81.363   149.491
66.3073     81.411   146.101
67.2717     81.435   142.783
68.2502     81.447   139.653
69.2429     81.466   136.657
70.2501     81.491   133.656
71.2719     81.507   130.642
72.3086     81.514   127.624
73.3603     81.501   124.580
74.4274     81.457   121.634
75.5099     81.397   118.890
76.6083     81.326   116.331
77.7226     81.262   114.030
78.8531     81.225   111.833
80.0000     81.202   109.605
81.1636     81.179   107.348
82.3442     81.153   105.088
83.5419     81.121   102.808
84.7570     81.072   100.592
85.9899     81.024    98.491
87.2406     80.980    96.429
88.5096     80.939    94.339
89.7970     80.885    92.209
91.1031     80.811    90.046
92.4282     80.693    87.980
93.7726     80.551    86.308
95.1366     80.440    84.962
96.5204     80.352    83.673
97.9243     80.281    82.534
99.3486     80.243    81.394
100.794     80.219    80.195
102.260     80.205    78.910
103.747     80.188    77.588
105.256     80.169    76.229
106.787     80.146    74.803
108.340     80.092    73.312
109.916     79.999    72.076
111.515     79.933    71.257
113.137     79.914    70.408
114.783     79.909    69.462
116.452     79.903    68.509
118.146     79.905    67.535
119.865     79.911    66.545
121.608     79.920    65.562
123.377     79.937    64.506
125.171     79.958    63.460
126.992     79.974    62.312
128.839     79.989    61.142
130.713     79.986    59.874
132.615     79.954    58.704
134.543     79.930    57.715
136.500     79.927    56.725
138.486     79.921    55.759
140.500     79.913    54.770
142.544     79.901    53.513
144.617     79.830    52.551
146.721     79.798    52.146
148.855     79.861    51.489
151.020     79.920    50.200
153.217     79.892    48.702
155.445     79.815    47.632
157.706     79.752    46.588
160.000     79.608    45.899
162.327     79.554    45.944
164.688     79.577    45.695
167.084     79.708    45.372
169.514     79.796    42.853
171.980     79.459    41.376
174.481     79.296    42.080
177.019     79.297    42.380
179.594     79.315    42.386
182.206     79.319    42.319
184.856     79.370    42.682
187.545     79.501    42.701
190.273     79.677    42.213
193.041     79.823    41.036
195.849     79.871    39.838
198.697     79.914    38.804
201.587     79.988    37.431
204.520     79.915    35.664
207.494     79.772    34.619
210.512     79.639    34.611
213.574     79.618    34.128
216.681     79.589    33.802
219.833     79.484    33.209
223.030     79.416    33.363
226.274     79.318    33.326
229.565     79.323    34.250
232.905     79.407    34.413
236.292     79.466    34.533
239.729     79.577    34.701
243.216     79.704    34.148
246.754     79.756    33.739
250.343     79.815    33.414
253.984     79.945    32.945
257.678     80.012    31.861
261.426     80.006    30.929
265.229     80.002    29.285
269.087     79.649    29.154
273.001     79.609    30.809
276.972     79.752    31.154
281.000     79.818    31.040
285.088     79.880    31.110
289.234     79.943    31.132
293.441     80.105    30.891
297.709     80.179    30.044
302.040     80.243    28.456
306.433     79.978    28.055
310.890     80.097    28.824
315.412     80.207    27.265
320.000     80.095    25.826
324.655     79.801    25.795
329.377     79.849    27.005
334.168     79.879    26.429
339.028     79.905    26.813
343.959     79.994    26.676
348.962     80.094    26.351
354.038     80.168    25.871
359.188     80.345    25.042
364.412     80.329    23.117
369.713     80.285    23.108
375.090     80.435    22.317
380.546     80.537    20.854
386.081     80.534    19.596
391.697     80.547    18.050
397.394     80.662    16.710
403.175     80.509    14.027
409.039     80.413    13.126
414.989     80.377    11.844
421.025     80.370    10.572
427.149     80.304     9.137
433.362     80.268     8.112
439.665     80.315     6.711
446.060     80.159     4.718
452.548     80.110     3.531
459.131     79.989     2.381
465.809     80.001     1.507
472.584     79.895    -0.113
479.458     79.820    -0.849
486.432     79.792    -1.773
493.507     79.724    -2.730
500.686     79.683    -3.321
507.968     79.672    -3.814
515.357     79.694    -4.264
522.853     79.729    -4.646
530.458     79.797    -4.937
538.174     79.896    -5.208
546.002     80.017    -5.476
553.943     80.158    -5.779
562.001     80.322    -6.102
570.175     80.499    -6.514
578.469     80.689    -7.080
586.883     80.875    -7.852
595.419     81.060    -8.773
604.080     81.239    -9.859
612.866     81.411   -11.121
621.780     81.563   -12.543
630.824     81.703   -14.111
640.000     81.822   -15.758
649.309     81.914   -17.454
658.753     81.986   -19.222
668.335     82.036   -21.067
678.056     82.060   -22.881
687.919     82.062   -24.698
697.925     82.042   -26.455
708.077     82.003   -28.126
718.376     81.946   -29.700
728.825     81.878   -31.176
739.426     81.799   -32.525
750.181     81.712   -33.751
761.093     81.628   -34.875
772.163     81.547   -35.865
783.394     81.476   -36.744
794.789     81.409   -37.557
806.349     81.352   -38.329
818.078     81.304   -39.066
829.977     81.267   -39.796
842.050     81.236   -40.507
854.298     81.206   -41.201
866.724     81.177   -41.863
879.330     81.152   -42.505
892.120     81.127   -43.059
905.097     81.111   -43.537
918.262     81.109   -43.918
931.618     81.128   -44.180
945.169     81.177   -44.404
958.917     81.264   -44.601
972.864     81.391   -44.868
987.015     81.558   -45.306
1001.37     81.757   -45.999
1015.94     81.981   -47.019
1030.71     82.211   -48.385
1045.71     82.434   -50.138
1060.92     82.638   -52.275
1076.35     82.804   -54.669
1092.00     82.923   -57.286
1107.89     82.991   -60.059
1124.00     83.005   -62.885
1140.35     82.966   -65.608
1156.94     82.879   -68.212
1173.77     82.759   -70.558
1190.84     82.614   -72.605
1208.16     82.469   -74.361
1225.73     82.336   -75.838
1243.56     82.228   -77.137
1261.65     82.153   -78.336
1280.00     82.109   -79.558
1298.62     82.086   -80.866
1317.51     82.075   -82.296
1336.67     82.054   -83.831
1356.11     82.025   -85.428
1375.84     81.984   -86.971
1395.85     81.935   -88.438
1416.15     81.897   -89.763
1436.75     81.878   -90.978
1457.65     81.889   -92.170
1478.85     81.930   -93.461
1500.36     81.993   -94.920
1522.19     82.063   -96.598
1544.33     82.123   -98.483
1566.79     82.160  -100.499
1589.58     82.175  -102.522
1612.70     82.172  -104.447
1636.16     82.168  -106.269
1659.95     82.179  -107.994
1684.10     82.216  -109.739
1708.60     82.273  -111.609
1733.45     82.335  -113.674
1758.66     82.385  -115.970
1784.24     82.405  -118.402
1810.19     82.388  -120.814
1836.52     82.344  -123.109
1863.24     82.291  -125.205
1890.34     82.250  -127.126
1917.83     82.230  -129.008
1945.73     82.231  -130.942
1974.03     82.229  -133.024
2002.74     82.209  -135.181
2031.87     82.162  -137.287
2061.43     82.100  -139.202
2091.41     82.047  -140.883
2121.83     82.028  -142.432
2152.69     82.048  -143.992
2184.01     82.093  -145.753
2215.77     82.136  -147.747
2248.00     82.159  -149.865
2280.70     82.157  -151.960
2313.87     82.146  -153.981
2347.53     82.138  -155.946
2381.68     82.136  -157.915
2416.32     82.123  -159.940
2451.46     82.093  -161.935
2487.12     82.049  -163.751
2523.30     82.018  -165.343
2560.00     82.027  -166.815
2597.24     82.078  -168.389
2635.01     82.146  -170.233
2673.34     82.199  -172.300
2712.23     82.226  -174.432
2751.68     82.241  -176.502
2791.70     82.269  -178.548
2832.31     82.312   179.242
2873.50     82.345   176.735
2915.30     82.329   174.004
2957.70     82.251   171.260
3000.72     82.124   168.732
3044.37     81.977   166.452
3088.65     81.825   164.287
3133.58     81.650   162.129
3179.16     81.421   160.081
3225.40     81.134   158.436
3272.31     80.834   157.458
3319.91     80.582   157.068
3368.20     80.396   156.894
3417.19     80.247   156.715
3466.89     80.103   156.699
3517.32     79.990   157.062
3568.48     79.963   157.650
3620.39     80.021   158.084
3673.05     80.123   158.156
3726.47     80.238   157.978
3780.67     80.366   157.669
3835.67     80.523   157.190
3891.46     80.713   156.384
3948.06     80.908   155.032
4005.49     81.054   153.123
4063.75     81.113   150.944
4122.86     81.096   148.758
4182.82     81.007   146.571
4243.66     80.816   144.547
4305.39     80.539   143.172
4368.01     80.256   142.483
4431.55     79.968   142.110
4496.01     79.615   142.378
4561.40     79.285   143.944
4627.75     79.124   146.399
4695.06     79.127   148.956
4763.35     79.276   151.468
4832.64     79.583   153.421
4902.93     79.970   154.281
4974.24     80.332   154.150
5046.60     80.608   153.333
5120.00     80.774   152.388
5194.47     80.878   151.659
5270.03     80.944   151.191
5346.68     81.012   151.070
5424.45     81.112   150.941
5503.35     81.175   150.815
5583.40     81.258   151.182
5664.61     81.425   151.418
5747.01     81.595   151.269
5830.60     81.755   150.845
5915.41     81.846   150.220
6001.45     81.877   150.057
6088.74     81.924   150.336
6177.30     82.028   151.033
6267.15     82.256   151.582
6358.31     82.517   151.482
6450.80     82.780   150.918
6544.62     83.003   149.772
6639.82     83.175   148.329
6736.40     83.277   146.278
6834.38     83.183   143.966
6933.79     82.901   142.428
7034.64     82.547   142.093
7136.96     82.157   142.748
7240.77     81.754   145.075
7346.09     81.587   149.434
7452.94     81.863   153.644
7561.35     82.316   156.224
7671.33     82.868   157.344
7782.91     83.312   156.910
7896.12     83.656   156.064
8010.97     83.919   154.735
8127.49     84.045   152.771
8245.71     83.924   151.064
8365.65     83.683   149.867
8487.33     83.268   149.408
8610.78     82.782   150.583
8736.03     82.464   152.949
8863.09     82.285   155.145
8992.01     82.190   157.229
9122.80     82.222   158.475
9255.50     82.203   158.752
9390.12     82.067   158.115
9526.70     81.710   158.370
9665.27     81.455   160.171
9805.86     81.322   161.445
9948.49     81.189   164.075
10093.2     81.356   166.772
10240.0     81.683   168.459
10388.9     81.990   168.755
10540.1     82.068   168.404
10693.4     82.069   168.881
10848.9     81.983   169.791
11006.7     81.948   171.688
11166.8     82.007   173.810
11329.2     82.161   176.155
11494.0     82.340   177.962
11661.2     82.601  -179.946
11830.8     82.980  -178.497
12002.9     83.398  -178.114
12177.5     83.634  -179.274
12354.6     83.643  -179.683
12534.3     83.595  -178.757
12716.6     83.766  -176.818
12901.6     84.093  -175.610
13089.2     84.573  -175.945
13279.6     84.902  -178.022
13472.8     84.997   178.948
13668.8     84.842   176.370
13867.6     84.466   174.314
14069.3     84.016   173.914
14273.9     83.651   174.843
14481.5     83.497   175.055
14692.2     83.214   173.630
14905.9     82.396   172.317
15122.7     81.317   175.594
15342.7     80.905  -177.233
15565.8     81.055  -173.490
15792.2     80.881  -172.947
16021.9     80.086  -170.845
16255.0     79.102  -161.194
16491.4     80.272  -147.946
16731.3     81.625  -149.718
16974.7     81.834  -151.996
17221.6     81.835  -152.677
17472.1     81.767  -153.152
17726.2     81.581  -153.106
17984.0     81.372  -152.321
18245.6     81.242  -151.510
18511.0     81.135  -151.649
18780.2     80.834  -152.693
19053.4     80.226  -153.033
19330.5     79.558  -151.038
19611.7     79.133  -148.669
19897.0     78.718  -146.532
20186.4     78.360  -145.384
20480.0     77.434  -144.554
20777.9     76.615  -138.216
21080.1     76.629  -132.535
21386.7     76.395  -130.537
21697.8     76.020  -127.619
22013.4     75.704  -124.721
22333.6     75.247  -122.042
22658.4     74.799  -117.759
22988.0     74.610  -113.836
23322.4     74.370  -110.984
23661.6     74.155  -107.706
24005.8     74.043  -105.666
24355.0     73.798  -104.547
24709.2     73.449  -103.639
25068.6     72.948  -102.382
25433.2     72.830  -101.808
25803.2     72.263  -104.136
26178.5     71.435  -105.513
26559.3     70.481  -106.809
26945.6     69.012  -108.355
27337.5     66.850   -94.590
27735.2     69.150   -94.185
28138.6     67.547  -103.838
28547.9     65.795  -104.873
28963.1     64.034  -104.559
29384.4     62.177  -103.573
29811.8     60.092  -102.296
30245.4     57.879  -101.936
30685.3     55.125  -104.400
31131.7     51.357  -110.588
31584.5     46.141  -130.099
32043.9     41.724  -178.633
32510.0     44.531   139.359
32982.8     48.083   123.646
33462.6     50.052   121.942
33949.3     51.979   123.545
34443.1     53.168   122.989
34944.1     53.838   122.679
35452.4     53.930   123.604
35968.0     53.759   126.013
36491.2     53.449   129.990
37022.0     53.038   133.847
37560.5     52.307   137.049
38106.8     51.005   148.586
38661.1     51.225   157.688
39223.4     50.880   163.789
39793.9     50.676   170.251
