Freq[Hz]     dBSPL  Phase[Deg]
5.00000    -11.870   157.323
5.07273    -14.364   159.122
5.14651    -15.562   147.067
5.22137    -13.139    96.324
5.29732    -10.716    45.581
5.37437     -8.293    -5.162
5.45254     -5.870   -55.904
5.53185     -3.950   -83.678
5.61231     -2.561   -87.154
5.69394     -1.171   -90.630
5.77676      0.218   -94.107
5.86079      1.590   -97.604
5.94604      1.973  -102.346
6.03252      2.356  -107.088
6.12027      2.739  -111.829
6.20929      3.122  -116.571
6.29961      2.748  -122.056
6.39124      2.206  -127.705
6.48420      1.664  -133.355
6.57851      1.122  -139.004
6.67420     -1.875  -149.273
6.77128     -5.271  -160.291
6.86977     -8.666  -171.310
6.96969    -11.287   173.398
7.07107     -8.021   125.597
7.17392     -4.754    77.795
7.27827     -1.487    29.994
7.38413      1.029     4.868
7.49154      2.964    -2.739
7.60050      4.900   -10.346
7.71105      6.579   -17.903
7.82321      7.134   -25.239
7.93701      7.689   -32.576
8.05245      8.244   -39.913
8.16958      7.548   -48.029
8.28841      6.806   -56.174
8.40896      6.064   -64.319
8.53128      1.010   -90.599
8.65537     -4.601  -119.218
8.78126    -10.211  -147.837
8.90899     -4.061   -72.043
9.03857      2.860    10.592
9.17004      9.285    82.998
9.30342     11.754    73.990
9.43874     14.224    64.983
9.57603     16.199    56.315
9.71532     17.416    48.168
9.85663     18.633    40.022
10.0000     19.161    32.426
10.1455     19.497    24.984
10.2930     19.585    18.097
10.4427     18.981    12.763
10.5946     18.377     7.428
10.7487     16.862    10.071
10.9051     15.165    14.306
11.0637     14.741    26.901
11.2246     15.662    48.338
11.3879     16.990    65.583
11.5535     19.800    67.543
11.7216     22.593    69.370
11.8921     24.355    63.312
12.0650     26.117    57.254
12.2405     27.179    49.460
12.4186     28.151    41.442
12.5992     28.582    33.183
12.7825     28.894    24.869
12.9684     28.647    17.394
13.1570     28.270    10.114
13.3484     27.185     6.252
13.5426     25.985     2.944
13.7395     24.469    11.715
13.9394     23.267    21.826
14.1421     24.545    38.593
14.3478     26.168    50.615
14.5565     28.533    52.431
14.7683     30.457    50.315
14.9831     32.043    45.160
15.2010     32.990    38.617
15.4221     33.710    31.984
15.6464     33.917    25.999
15.8740     33.849    21.734
16.1049     33.562    18.842
16.3392     33.221    21.383
16.5768     33.219    25.871
16.8179     33.713    32.889
17.0626     35.036    37.341
17.3107     36.509    39.439
17.5625     38.048    38.457
17.8180     39.289    34.809
18.0771     40.321    30.605
18.3401     41.140    26.103
18.6068     41.708    22.129
18.8775     42.176    19.117
19.1521     42.621    16.931
19.4306     43.094    15.529
19.7133     43.686    14.547
20.0000     44.355    13.242
20.2909     45.040    11.491
20.5860     45.695     9.307
20.8855     46.279     6.872
21.1893     46.762     4.665
21.4975     47.205     3.028
21.8102     47.671     1.960
22.1274     48.208     1.249
22.4492     48.838     0.522
22.7758     49.541    -0.621
23.1071     50.266    -2.414
23.4432     50.947    -4.798
23.7841     51.544    -7.484
24.1301     52.064   -10.090
24.4811     52.536   -12.380
24.8372     53.004   -14.292
25.1984     53.506   -15.940
25.5649     54.059   -17.550
25.9368     54.654   -19.333
26.3141     55.267   -21.398
26.6968     55.874   -23.723
27.0851     56.459   -26.202
27.4791     57.022   -28.704
27.8788     57.572   -31.128
28.2843     58.121   -33.448
28.6957     58.685   -35.700
29.1131     59.264   -37.950
29.5365     59.851   -40.255
29.9661     60.440   -42.632
30.4020     61.021   -45.051
30.8442     61.588   -47.459
31.2929     62.148   -49.832
31.7480     62.702   -52.182
32.2098     63.249   -54.538
32.6783     63.784   -56.917
33.1536     64.304   -59.298
33.6359     64.811   -61.648
34.1251     65.314   -63.960
34.6215     65.820   -66.276
35.1250     66.331   -68.658
35.6359     66.845   -71.185
36.1543     67.355   -73.858
36.6802     67.855   -76.649
37.2137     68.345   -79.504
37.7550     68.833   -82.385
38.3041     69.324   -85.314
38.8613     69.819   -88.316
39.4265     70.311   -91.403
40.0000     70.799   -94.546
40.5818     71.283   -97.752
41.1721     71.754  -101.065
41.7710     72.199  -104.466
42.3785     72.603  -107.829
42.9949     72.983  -111.009
43.6203     73.363  -114.007
44.2548     73.759  -116.969
44.8985     74.165  -120.042
45.5515     74.561  -123.231
46.2141     74.949  -126.495
46.8863     75.325  -129.816
47.5683     75.693  -133.184
48.2602     76.058  -136.599
48.9621     76.419  -140.097
49.6743     76.769  -143.697
50.3968     77.099  -147.347
51.1299     77.414  -150.984
51.8736     77.724  -154.615
52.6281     78.021  -158.272
53.3936     78.305  -161.948
54.1702     78.575  -165.635
54.9581     78.829  -169.351
55.7575     79.061  -173.105
56.5685     79.271  -176.899
57.3914     79.458   179.253
58.2261     79.617   175.368
59.0730     79.752   171.531
59.9323     79.883   167.787
60.8040     80.022   164.062
61.6884     80.161   160.330
62.5857     80.296   156.682
63.4960     80.430   153.100
64.4196     80.544   149.557
65.3566     80.627   146.167
66.3073     80.687   142.894
67.2717     80.713   139.693
68.2502     80.715   136.640
69.2429     80.720   133.656
70.2501     80.732   130.597
71.2719     80.743   127.479
72.3086     80.753   124.346
73.3603     80.750   121.211
74.4274     80.718   118.219
75.5099     80.666   115.470
76.6083     80.599   112.922
77.7226     80.534   110.615
78.8531     80.491   108.375
80.0000     80.466   106.063
81.1636     80.445   103.703
82.3442     80.428   101.349
83.5419     80.408    99.007
84.7570     80.369    96.765
85.9899     80.326    94.657
87.2406     80.284    92.583
88.5096     80.240    90.454
89.7970     80.184    88.253
91.1031     80.112    85.999
92.4282     79.999    83.838
93.7726     79.864    82.082
95.1366     79.763    80.669
96.5204     79.683    79.327
97.9243     79.618    78.141
99.3486     79.585    76.959
100.794     79.565    75.713
102.260     79.553    74.373
103.747     79.536    72.980
105.256     79.518    71.530
106.787     79.499    69.998
108.340     79.451    68.396
109.916     79.367    67.060
111.515     79.312    66.162
113.137     79.301    65.249
114.783     79.300    64.233
116.452     79.299    63.187
118.146     79.307    62.101
119.865     79.326    61.013
121.608     79.346    59.974
123.377     79.367    58.891
125.171     79.382    57.782
126.992     79.391    56.485
128.839     79.409    55.106
130.713     79.424    53.652
132.615     79.412    52.379
134.543     79.398    51.332
136.500     79.397    50.247
138.486     79.394    49.140
140.500     79.397    47.986
142.544     79.400    46.596
144.617     79.338    45.536
146.721     79.310    45.009
148.855     79.380    44.185
151.020     79.451    42.735
153.217     79.433    41.097
155.445     79.364    39.883
157.706     79.309    38.675
160.000     79.177    37.810
162.327     79.135    37.699
164.688     79.165    37.311
167.084     79.300    36.805
169.514     79.396    34.052
171.980     79.075    32.356
174.481     78.924    32.898
177.019     78.931    33.031
179.594     78.955    32.804
182.206     78.974    32.482
184.856     79.040    32.649
187.545     79.176    32.483
190.273     79.355    31.728
193.041     79.514    30.276
195.849     79.575    28.856
198.697     79.624    27.585
201.587     79.704    25.929
204.520     79.638    23.869
207.494     79.504    22.545
210.512     79.379    22.248
213.574     79.363    21.470
216.681     79.338    20.853
219.833     79.236    19.942
223.030     79.171    19.761
226.274     79.074    19.385
229.565     79.079    19.938
232.905     79.170    19.735
236.292     79.233    19.582
239.729     79.327    19.431
243.216     79.443    18.440
246.754     79.495    17.658
250.343     79.542    16.976
253.984     79.660    16.103
257.678     79.713    14.649
261.426     79.688    13.311
265.229     79.671    11.287
269.087     79.294    10.836
273.001     79.222    12.110
276.972     79.342    12.073
281.000     79.381    11.646
285.088     79.403    11.358
289.234     79.434    11.009
293.441     79.565    10.459
297.709     79.610     9.337
302.040     79.635     7.557
306.433     79.325     6.860
310.890     79.419     7.378
315.412     79.494     5.698
320.000     79.341     4.107
324.655     79.013     3.895
329.377     79.037     4.996
334.168     79.034     4.334
339.028     79.035     4.586
343.959     79.107     4.354
348.962     79.200     3.955
354.038     79.261     3.457
359.188     79.429     2.531
364.412     79.415     0.529
369.713     79.372     0.432
375.090     79.534    -0.492
380.546     79.652    -2.042
386.081     79.661    -3.464
391.697     79.701    -5.196
397.394     79.838    -6.729
403.175     79.715    -9.659
409.039     79.644   -10.838
414.989     79.644   -12.455
421.025     79.667   -14.095
427.149     79.635   -15.926
433.362     79.627   -17.404
439.665     79.707   -19.327
446.060     79.575   -21.868
452.548     79.552   -23.656
459.131     79.447   -25.457
465.809     79.476   -27.014
472.584     79.367   -29.318
479.458     79.283   -30.789
486.432     79.240   -32.483
493.507     79.139   -34.176
500.686     79.055   -35.543
507.968     78.994   -36.740
515.357     78.953   -37.833
522.853     78.919   -38.789
530.458     78.912   -39.565
538.174     78.931   -40.202
546.002     78.976   -40.767
553.943     79.047   -41.272
562.001     79.144   -41.720
570.175     79.274   -42.204
578.469     79.426   -42.782
586.883     79.592   -43.541
595.419     79.768   -44.419
604.080     79.953   -45.538
612.866     80.139   -46.861
621.780     80.327   -48.406
630.824     80.510   -50.133
640.000     80.675   -52.016
649.309     80.822   -54.035
658.753     80.951   -56.193
668.335     81.058   -58.509
678.056     81.138   -60.910
687.919     81.195   -63.353
697.925     81.225   -65.845
708.077     81.229   -68.275
718.376     81.206   -70.686
728.825     81.160   -73.056
739.426     81.097   -75.326
750.181     81.018   -77.485
761.093     80.927   -79.512
772.163     80.832   -81.380
783.394     80.740   -83.118
794.789     80.652   -84.750
806.349     80.574   -86.288
818.078     80.514   -87.787
829.977     80.468   -89.251
842.050     80.437   -90.762
854.298     80.415   -92.328
866.724     80.398   -93.944
879.330     80.377   -95.674
892.120     80.348   -97.501
905.097     80.305   -99.344
918.262     80.243  -101.199
931.618     80.165  -102.984
945.169     80.069  -104.639
958.917     79.968  -106.113
972.864     79.872  -107.368
987.015     79.793  -108.370
1001.37     79.747  -109.206
1015.94     79.752  -109.923
1030.71     79.815  -110.663
1045.71     79.939  -111.601
1060.92     80.111  -112.872
1076.35     80.309  -114.531
1092.00     80.511  -116.684
1107.89     80.696  -119.303
1124.00     80.842  -122.327
1140.35     80.935  -125.629
1156.94     80.959  -129.114
1173.77     80.913  -132.615
1190.84     80.801  -135.991
1208.16     80.636  -139.062
1225.73     80.435  -141.783
1243.56     80.223  -144.039
1261.65     80.035  -145.863
1280.00     79.900  -147.382
1298.62     79.833  -148.779
1317.51     79.830  -150.344
1336.67     79.875  -152.248
1356.11     79.931  -154.584
1375.84     79.968  -157.396
1395.85     79.960  -160.519
1416.15     79.887  -163.780
1436.75     79.750  -166.973
1457.65     79.559  -169.951
1478.85     79.339  -172.581
1500.36     79.121  -174.840
1522.19     78.935  -176.832
1544.33     78.791  -178.733
1566.79     78.687   179.239
1589.58     78.597   176.942
1612.70     78.497   174.382
1636.16     78.359   171.666
1659.95     78.178   168.923
1684.10     77.962   166.282
1708.60     77.736   163.848
1733.45     77.518   161.500
1758.66     77.312   159.046
1784.24     77.100   156.313
1810.19     76.834   153.290
1836.52     76.478   150.053
1863.24     75.997   146.988
1890.34     75.403   144.555
1917.83     74.745   143.088
1945.73     74.113   142.741
1974.03     73.583   143.056
2002.74     73.168   143.427
2031.87     72.790   143.412
2061.43     72.351   143.182
2091.41     71.807   143.440
2121.83     71.242   144.873
2152.69     70.826   147.472
2184.01     70.664   150.118
2215.77     70.652   151.462
2248.00     70.562   151.193
2280.70     70.204   150.393
2313.87     69.560   150.727
2347.53     68.833   153.671
2381.68     68.360   158.922
2416.32     68.287   164.232
2451.46     68.364   167.995
2487.12     68.307   171.121
2523.30     68.151   175.600
2560.00     68.232  -178.054
2597.24     68.766  -171.999
2635.01     69.511  -168.336
2673.34     70.137  -166.358
2712.23     70.617  -164.322
2751.68     71.193  -161.500
2791.70     72.002  -159.376
2832.31     72.872  -159.314
2873.50     73.532  -160.745
2915.30     73.931  -161.883
2957.70     74.290  -161.595
3000.72     74.864  -160.722
3044.37     75.625  -161.132
3088.65     76.313  -163.337
3133.58     76.771  -166.169
3179.16     77.076  -168.384
3225.40     77.394  -169.921
3272.31     77.774  -171.649
3319.91     78.102  -173.988
3368.20     78.306  -176.309
3417.19     78.444  -177.914
3466.89     78.632  -178.960
3517.32     78.888   179.985
3568.48     79.159   178.719
3620.39     79.438   177.383
3673.05     79.744   175.863
3726.47     80.046   173.978
3780.67     80.306   171.839
3835.67     80.528   169.672
3891.46     80.736   167.481
3948.06     80.933   165.186
4005.49     81.125   162.699
4063.75     81.281   159.735
4122.86     81.322   156.433
4182.82     81.228   153.486
4243.66     81.095   151.158
4305.39     80.947   148.844
4368.01     80.655   146.710
4431.55     80.262   146.064
4496.01     80.006   146.728
4561.40     79.853   147.435
4627.75     79.723   149.004
4695.06     79.892   151.311
4763.35     80.297   151.774
4832.64     80.577   150.972
4902.93     80.886   150.153
4974.24     81.215   147.429
5046.60     81.147   143.659
5120.00     80.839   141.730
5194.47     80.569   140.292
5270.03     80.010   139.521
5346.68     79.495   142.551
5424.45     79.458   145.934
5503.35     79.417   149.255
5583.40     79.833   153.917
5664.61     80.558   155.037
5747.01     81.069   155.253
5830.60     81.805   154.402
5915.41     82.271   150.407
6001.45     82.390   147.186
6088.74     82.451   143.217
6177.30     81.959   139.761
6267.15     81.449   140.168
6358.31     81.072   141.369
6450.80     80.917   145.432
6544.62     81.338   147.698
6639.82     81.649   148.795
6736.40     82.273   148.561
6834.38     82.575   145.524
6933.79     82.764   142.949
7034.64     82.673   138.421
7136.96     82.186   135.669
7240.77     81.467   133.661
7346.09     80.551   136.529
7452.94     80.185   140.877
7561.35     80.069   147.037
7671.33     80.639   150.766
7782.91     81.108   152.040
7896.12     81.523   150.782
8010.97     81.548   149.592
8127.49     81.373   147.965
8245.71     80.877   148.984
8365.65     80.481   151.294
8487.33     80.293   155.732
8610.78     80.385   159.080
8736.03     80.727   161.088
8863.09     80.795   160.601
8992.01     80.703   160.003
9122.80     80.307   160.199
9255.50     79.855   161.968
9390.12     79.703   166.371
9526.70     79.917   169.716
9665.27     80.494   171.153
9805.86     80.972   169.293
9948.49     80.969   165.585
10093.2     80.609   164.149
10240.0     80.166   165.885
10388.9     80.187   169.432
10540.1     80.613   171.588
10693.4     81.073   171.040
10848.9     81.189   167.971
11006.7     80.887   165.799
11166.8     80.266   165.776
11329.2     79.745   169.531
11494.0     79.831   174.245
11661.2     80.311   176.535
11830.8     80.610   175.071
12002.9     80.371   172.900
12177.5     79.666   173.437
12354.6     79.251   179.135
12534.3     79.595  -176.216
12716.6     79.985  -175.665
12901.6     79.822  -175.734
13089.2     79.595  -172.274
13279.6     79.937  -167.170
13472.8     80.872  -166.239
13668.8     81.443  -170.693
13867.6     81.187  -176.505
14069.3     80.318  -179.227
14273.9     79.351  -176.974
14481.5     79.015  -172.492
14692.2     79.031  -170.612
14905.9     78.653  -170.775
15122.7     77.997  -168.324
15342.7     77.720  -163.257
15565.8     77.812  -160.904
15792.2     77.555  -160.849
16021.9     76.807  -158.923
16255.0     76.009  -150.609
16491.4     77.232  -141.267
16731.3     78.073  -147.081
16974.7     77.558  -150.723
17221.6     76.956  -151.605
17472.1     76.210  -152.014
17726.2     75.280  -150.243
17984.0     74.491  -146.800
18245.6     73.793  -142.717
18511.0     73.385  -138.173
18780.2     73.080  -136.914
19053.4     72.057  -136.207
19330.5     70.803  -130.642
19611.7     70.061  -123.469
19897.0     69.339  -117.210
20186.4     68.548  -109.209
20480.0     68.090   -99.686
20777.9     67.925   -91.501
21080.1     67.807   -82.593
21386.7     68.237   -74.818
21697.8     68.181   -73.185
22013.4     67.732   -64.252
22333.6     68.292   -57.404
22658.4     68.436   -55.069
22988.0     68.412   -50.260
23322.4     68.734   -46.787
23661.6     68.772   -46.334
24005.8     68.576   -44.922
24355.0     68.384   -44.227
24709.2     68.159   -45.685
25068.6     66.594   -52.045
25433.2     65.115   -38.606
25803.2     65.030   -39.157
26178.5     63.601   -38.647
26559.3     62.209   -33.347
26945.6     60.998   -30.992
27337.5     58.266   -23.468
27735.2     56.345    -1.029
28138.6     56.639    17.655
28547.9     57.061    31.762
28963.1     57.453    42.519
29384.4     58.006    51.930
29811.8     58.291    58.373
30245.4     58.345    64.604
30685.3     58.281    70.333
31131.7     58.029    75.086
31584.5     57.389    80.572
32043.9     56.925    87.121
32510.0     56.371    91.770
32982.8     55.482    96.634
33462.6     54.525   100.162
33949.3     52.841   106.796
34443.1     51.747   115.791
34944.1     50.628   122.971
35452.4     49.427   128.231
35968.0     47.596   131.332
36491.2     44.560   133.463
37022.0     39.659   143.056
37560.5     31.667   165.649
38106.8     29.797  -144.830
38661.1     39.243   -57.810
39223.4     42.481   -52.766
39793.9     44.296   -47.638
