Freq[Hz]     dBSPL  Phase[Deg]
5.00000     -8.799  -179.606
5.07273    -11.295  -177.482
5.14651    -12.495   170.794
5.22137    -10.073   120.400
5.29732     -7.652    70.006
5.37437     -5.231    19.612
5.45254     -2.810   -30.783
5.53185     -0.891   -58.196
5.61231      0.496   -61.300
5.69394      1.884   -64.404
5.77676      3.271   -67.507
5.86079      4.641   -70.632
5.94604      5.022   -74.977
6.03252      5.404   -79.323
6.12027      5.785   -83.668
6.20929      6.166   -88.014
6.29961      5.790   -93.082
6.39124      5.246   -98.311
6.48420      4.702  -103.539
6.57851      4.158  -108.768
6.67420      1.159  -118.594
6.77128     -2.238  -129.166
6.86977     -5.635  -139.739
6.96969     -8.259  -154.582
7.07107     -4.994   158.088
7.17392     -1.729   110.757
7.27827      1.536    63.427
7.38413      4.050    38.788
7.49154      5.983    31.678
7.60050      7.916    24.568
7.71105      9.594    17.514
7.82321     10.146    10.701
7.93701     10.699     3.889
8.05245     11.252    -2.923
8.16958     10.554   -10.489
8.28841      9.810   -18.083
8.40896      9.065   -25.676
8.53128      4.009   -51.379
8.65537     -1.604   -79.419
8.78126     -7.217  -107.458
8.90899     -1.070   -31.059
9.03857      5.848    52.183
9.17004     12.269   125.201
9.30342     14.735   116.829
9.43874     17.201   108.458
9.57603     19.172   100.438
9.71532     20.384    92.956
9.85663     21.596    85.474
10.0000     22.119    78.566
10.1455     22.449    71.817
10.2930     22.532    65.631
10.4427     21.921    61.018
10.5946     21.311    56.404
10.7487     19.787    59.791
10.9051     18.082    64.775
11.0637     17.648    78.131
11.2246     18.560   100.343
11.3879     19.879   118.367
11.5535     22.678   121.127
11.7216     25.459   123.753
11.8921     27.207   118.518
12.0650     28.955   113.283
12.2405     30.003   106.331
12.4186     30.959    99.158
12.5992     31.374    91.759
12.7825     31.668    84.310
12.9684     31.402    77.714
13.1570     31.005    71.316
13.3484     29.900    68.350
13.5426     28.680    65.941
13.7395     27.141    75.624
13.9394     25.916    86.650
14.1421     27.170   104.344
14.3478     28.768   117.295
14.5565     31.108   120.049
14.7683     33.007   118.877
14.9831     34.567   114.672
15.2010     35.487   109.087
15.4221     36.180   103.416
15.6464     36.360    98.402
15.8740     36.265    95.113
16.1049     35.950    93.202
16.3392     35.583    96.738
16.5768     35.554   102.224
16.8179     36.022   110.250
17.0626     37.319   115.722
17.3107     38.767   118.850
17.5625     40.281   118.907
17.8180     41.498   116.316
18.0771     42.507   113.181
18.3401     43.304   109.760
18.6068     43.850   106.889
18.8775     44.296   104.997
19.1521     44.720   103.949
19.4306     45.173   103.701
19.7133     45.744   103.901
20.0000     46.392   103.798
20.2909     47.056   103.271
20.5860     47.692   102.334
20.8855     48.256   101.168
21.1893     48.716   100.257
21.4975     49.137    99.941
21.8102     49.580   100.215
22.1274     50.092   100.870
22.4492     50.696   101.532
22.7758     51.372   101.798
23.1071     52.067   101.438
23.4432     52.717   100.507
23.7841     53.283    99.294
24.1301     53.768    98.180
24.4811     54.205    97.400
24.8372     54.635    97.014
25.1984     55.098    96.908
25.5649     55.609    96.855
25.9368     56.161    96.642
26.3141     56.730    96.161
26.6968     57.292    95.432
27.0851     57.831    94.561
27.4791     58.346    93.679
27.8788     58.847    92.888
28.2843     59.348    92.212
28.6957     59.862    91.617
29.1131     60.391    91.037
29.5365     60.930    90.416
29.9661     61.469    89.739
30.4020     62.002    89.036
30.8442     62.520    88.364
31.2929     63.032    87.750
31.7480     63.539    87.180
32.2098     64.039    86.628
32.6783     64.528    86.083
33.1536     65.001    85.565
33.6359     65.462    85.106
34.1251     65.916    84.717
34.6215     66.373    84.358
35.1250     66.834    83.960
35.6359     67.296    83.449
36.1543     67.751    82.818
36.6802     68.194    82.096
37.2137     68.625    81.331
37.7550     69.052    80.556
38.3041     69.481    79.752
38.8613     69.911    78.889
39.4265     70.337    77.953
40.0000     70.760    76.974
40.5818     71.176    75.946
41.1721     71.583    74.828
41.7710     71.963    73.642
42.3785     72.304    72.519
42.9949     72.621    71.606
43.6203     72.939    70.904
44.2548     73.273    70.271
44.8985     73.617    69.561
45.5515     73.951    68.767
46.2141     74.275    67.928
46.8863     74.586    67.063
47.5683     74.889    66.175
48.2602     75.187    65.267
48.9621     75.483    64.301
49.6743     75.767    63.257
50.3968     76.033    62.191
51.1299     76.283    61.169
51.8736     76.528    60.185
52.6281     76.762    59.212
53.3936     76.982    58.256
54.1702     77.188    57.321
54.9581     77.375    56.387
55.7575     77.542    55.439
56.5685     77.687    54.471
57.3914     77.811    53.471
58.2261     77.910    52.457
59.0730     77.991    51.529
59.9323     78.072    50.743
60.8040     78.166    50.040
61.6884     78.263    49.415
62.5857     78.356    48.957
63.4960     78.446    48.654
64.4196     78.510    48.463
65.3566     78.536    48.482
66.3073     78.533    48.653
67.2717     78.491    48.913
68.2502     78.423    49.331
69.2429     78.358    49.830
70.2501     78.305    50.282
71.2719     78.254    50.722
72.3086     78.205    51.211
73.3603     78.141    51.771
74.4274     78.047    52.539
75.5099     77.928    53.597
76.6083     77.790    54.882
77.7226     77.652    56.422
78.8531     77.541    58.039
80.0000     77.453    59.619
81.1636     77.378    61.212
82.3442     77.312    62.900
83.5419     77.243    64.705
84.7570     77.152    66.703
85.9899     77.052    68.906
87.2406     76.946    71.188
88.5096     76.838    73.444
89.7970     76.718    75.662
91.1031     76.585    77.874
92.4282     76.414    80.246
93.7726     76.223    83.095
95.1366     76.063    86.356
96.5204     75.925    89.744
97.9243     75.802    93.340
99.3486     75.714    96.997
100.794     75.640   100.660
102.260     75.577   104.307
103.747     75.510   107.979
105.256     75.442   111.670
106.787     75.374   115.351
108.340     75.276   119.041
109.916     75.145   123.078
111.515     75.039   127.629
113.137     74.977   132.227
114.783     74.928   136.782
116.452     74.881   141.382
118.146     74.846   146.042
119.865     74.821   150.800
121.608     74.794   155.679
123.377     74.767   160.553
125.171     74.743   165.451
126.992     74.721   170.267
128.839     74.714   175.152
130.713     74.697  -179.896
132.615     74.646  -174.681
134.543     74.590  -169.074
136.500     74.554  -163.388
138.486     74.528  -158.322
140.500     74.508  -152.633
142.544     74.479  -146.529
144.617     74.383  -140.748
146.721     74.322  -134.488
148.855     74.364  -127.933
151.020     74.415  -121.983
153.217     74.380  -116.184
155.445     74.291  -109.947
157.706     74.214  -103.717
160.000     74.060   -96.547
162.327     74.000   -88.633
164.688     74.017   -81.607
167.084     74.137   -74.068
169.514     74.217   -68.168
171.980     73.882   -61.242
174.481     73.724   -52.699
177.019     73.728   -44.526
179.594     73.743   -36.072
182.206     73.747   -27.143
184.856     73.806   -17.786
187.545     73.944    -9.360
190.273     74.128    -0.853
193.041     74.283     6.961
195.849     74.339    14.754
198.697     74.390    23.271
201.587     74.479    31.425
204.520     74.422    39.215
207.494     74.290    47.725
210.512     74.169    57.825
213.574     74.163    67.466
216.681     74.140    76.666
219.833     74.040    86.095
223.030     73.991    96.864
226.274     73.903   107.508
229.565     73.911   119.012
232.905     74.009   129.774
236.292     74.060   140.527
239.729     74.163   151.691
243.216     74.313   162.189
246.754     74.366   172.997
250.343     74.412  -175.686
253.984     74.543  -164.470
257.678     74.583  -153.826
261.426     74.548  -142.634
265.229     74.529  -132.056
269.087     74.134  -119.928
273.001     74.049  -106.118
276.972     74.148   -93.552
281.000     74.153   -80.830
285.088     74.133   -67.378
289.234     74.117   -53.998
293.441     74.186   -40.795
297.709     74.168   -28.254
302.040     74.133   -16.181
306.433     73.717    -2.442
310.890     73.708    13.028
315.412     73.666    26.383
320.000     73.401    39.833
324.655     72.945    54.878
329.377     72.819    71.218
334.168     72.650    87.102
339.028     72.479   103.998
343.959     72.358   120.542
348.962     72.271   136.900
354.038     72.142   153.496
359.188     72.104   170.228
364.412     71.890  -173.173
369.713     71.635  -154.626
375.090     71.601  -136.677
380.546     71.516  -118.638
386.081     71.345  -100.227
391.697     71.199   -81.355
397.394     71.173   -61.566
403.175     70.923   -43.599
409.039     70.736   -23.204
414.989     70.654    -2.386
421.025     70.620    18.440
427.149     70.560    39.039
433.362     70.566    60.066
439.665     70.686    81.926
446.060     70.626   103.099
452.548     70.713   124.851
459.131     70.746   147.223
465.809     70.950   170.281
472.584     71.026  -167.574
479.458     71.136  -144.872
486.432     71.319  -121.917
493.507     71.440   -98.658
500.686     71.596   -74.666
507.968     71.760   -50.656
515.357     71.920   -26.837
522.853     72.072    -2.488
530.458     72.226    22.444
538.174     72.373    47.353
546.002     72.513    72.238
553.943     72.634    97.704
562.001     72.760   123.758
570.175     72.858   150.549
578.469     72.938   177.789
586.883     73.007  -155.002
595.419     73.044  -127.757
604.080     73.049   -99.958
612.866     73.038   -71.629
621.780     72.996   -42.666
630.824     72.925   -13.050
640.000     72.822    16.616
649.309     72.688    46.356
658.753     72.523    76.771
668.335     72.314   108.558
678.056     72.072   140.554
687.919     71.797   173.315
697.925     71.478  -152.926
708.077     71.132  -118.901
718.376     70.753   -83.762
728.825     70.348   -47.541
739.426     69.952   -10.094
750.181     69.551    28.773
761.093     69.203    68.895
772.163     68.948   109.754
783.394     68.797   151.837
794.789     68.804  -164.477
806.349     68.971  -120.850
818.078     69.293   -76.977
829.977     69.759   -33.109
842.050     70.301    10.650
854.298     70.894    54.124
866.724     71.491    96.744
879.330     72.088   139.863
892.120     72.662  -177.015
905.097     73.171  -133.861
918.262     73.641   -90.595
931.618     74.042   -47.138
945.169     74.390    -3.406
958.917     74.668    40.653
972.864     74.881    85.085
987.015     75.023   129.954
1001.37     75.086   175.893
1015.94     75.066  -137.718
1030.71     74.974   -91.414
1045.71     74.795   -43.927
1060.92     74.520     4.736
1076.35     74.151    53.404
1092.00     73.683   102.814
1107.89     73.083   153.563
1124.00     72.363  -154.858
1140.35     71.492  -102.341
1156.94     70.451   -48.015
1173.77     69.226     7.634
1190.84     67.792    65.269
1208.16     66.138   125.431
1225.73     64.325  -170.029
1243.56     62.525   -99.406
1261.65     61.309   -23.089
1280.00     61.189    55.506
1298.62     61.992   131.312
1317.51     63.130  -156.870
1336.67     64.218   -87.931
1356.11     65.050   -20.963
1375.84     65.637    45.629
1395.85     65.965   112.602
1416.15     66.054   179.747
1436.75     65.913  -112.582
1457.65     65.555   -43.472
1478.85     65.003    27.470
1500.36     64.263    99.872
1522.19     63.392   174.889
1544.33     62.446  -106.984
1566.79     61.550   -25.644
1589.58     60.897    58.809
1612.70     60.616   144.512
1636.16     60.704  -129.087
1659.95     61.038   -43.381
1684.10     61.446    41.556
1708.60     61.808   125.934
1733.45     62.032  -150.449
1758.66     62.118   -65.965
1784.24     62.050    19.308
1810.19     61.829   104.900
1836.52     61.500  -167.588
1863.24     61.056   -78.555
1890.34     60.558    12.068
1917.83     60.055   104.545
1945.73     59.603  -161.232
1974.03     59.224   -64.665
2002.74     59.035    33.319
2031.87     59.005   132.312
2061.43     59.168  -127.950
2091.41     59.458   -27.148
2121.83     59.844    74.689
2152.69     60.250   176.305
2184.01     60.624   -80.887
2215.77     60.921    23.292
2248.00     61.095   128.511
2280.70     61.106  -124.822
2313.87     60.906   -15.855
2347.53     60.512    95.936
2381.68     59.875  -149.317
2416.32     59.059   -30.498
2451.46     58.206    93.251
2487.12     57.510  -137.738
2523.30     57.231    -5.039
2560.00     57.409   129.703
2597.24     57.820   -95.945
2635.01     58.236    38.921
2673.34     58.509   174.999
2712.23     58.647   -46.586
2751.68     58.751    95.267
2791.70     58.957  -120.099
2832.31     59.344    26.559
2873.50     59.865   174.192
2915.30     60.421   -37.679
2957.70     60.870   111.470
3000.72     61.123   -98.602
3044.37     61.100    52.345
3088.65     60.728  -154.530
3133.58     59.912     0.715
3179.16     58.518   159.868
3225.40     56.374   -34.792
3272.31     53.570   141.787
3319.91     51.734   -22.720
3368.20     53.286   176.927
3417.19     56.050     2.639
3466.89     58.240  -178.441
3517.32     59.716     0.371
3568.48     60.693  -179.762
3620.39     61.323     3.033
3673.05     61.731  -170.493
3726.47     61.996    19.094
3780.67     62.166  -148.319
3835.67     62.255    47.262
3891.46     62.261  -113.636
3948.06     62.153    88.434
4005.49     61.890   -66.236
4063.75     61.481   144.478
4122.86     61.053     0.460
4182.82     60.960  -138.507
4243.66     61.453    86.579
4305.39     62.344   -48.758
4368.01     63.169   175.487
4431.55     63.597    40.726
4496.01     63.528   -90.866
4561.40     63.056   142.812
4627.75     62.522    23.117
4695.06     62.337   -90.324
4763.35     62.576   158.660
4832.64     62.870    48.632
4902.93     62.929   -58.517
4974.24     62.835  -160.724
5046.60     62.879   101.373
5120.00     63.159     6.353
5194.47     63.406   -87.261
5270.03     63.275  -179.244
5346.68     62.637    93.288
5424.45     61.664    13.431
5503.35     60.804   -58.680
5583.40     60.408  -125.306
5664.61     60.314   171.638
5747.01     60.257   111.669
5830.60     60.250    55.842
5915.41     60.447     4.577
6001.45     60.693   -45.186
6088.74     60.552   -93.462
6177.30     59.672  -136.437
6267.15     58.164  -169.845
6358.31     56.948   169.639
6450.80     57.139   155.723
6544.62     58.101   140.103
6639.82     58.832   124.081
6736.40     59.065   110.702
6834.38     58.844   101.025
6933.79     58.113    96.090
7034.64     56.562    97.219
7136.96     53.926   110.650
7240.77     52.320   147.171
7346.09     53.904  -175.239
7452.94     55.388  -148.941
7561.35     55.641  -120.669
7671.33     55.058   -84.754
7782.91     54.156   -39.761
7896.12     53.466    13.757
8010.97     52.758    72.418
8127.49     51.932   142.058
8245.71     52.082  -142.275
8365.65     51.936   -69.284
8487.33     50.258    14.814
8610.78     49.566   113.199
8736.03     49.341  -148.633
8863.09     48.350   -42.502
8992.01     47.783    72.791
9122.80     47.076  -166.798
9255.50     46.523   -36.192
9390.12     46.288   100.221
9526.70     45.968  -109.612
9665.27     48.350    40.756
9805.86     49.029  -177.879
9948.49     48.018   -18.539
10093.2     48.188   153.437
10240.0     48.873   -27.865
10388.9     49.818   152.771
10540.1     49.886   -22.707
10693.4     49.234   172.690
10848.9     48.531    22.298
11006.7     48.598  -119.679
11166.8     48.730   102.887
11329.2     48.415   -28.129
11494.0     47.409  -147.488
11661.2     46.739   105.832
11830.8     46.302     8.273
12002.9     45.793   -77.770
12177.5     46.275  -154.731
12354.6     47.090   133.298
12534.3     47.573    66.493
12716.6     47.265    10.968
12901.6     47.557   -31.339
13089.2     47.898   -70.368
13279.6     47.673   -98.255
13472.8     47.070  -114.660
13668.8     46.684  -117.754
13867.6     46.625  -110.114
14069.3     46.893   -92.095
14273.9     47.649   -65.548
14481.5     48.379   -32.895
14692.2     48.636     8.695
14905.9     48.195    60.688
15122.7     47.962   125.766
15342.7     47.411  -161.685
15565.8     45.899   -74.892
15792.2     44.505    25.901
16021.9     43.143   140.334
16255.0     41.350   -94.613
16491.4     39.871    50.777
16731.3     39.684  -165.803
16974.7     36.410   -26.516
17221.6     28.264   123.388
17472.1     16.785   128.486
17726.2     23.787     6.239
17984.0     30.937  -127.952
18245.6     34.221    91.338
18511.0     34.565   -33.583
18780.2     35.381  -138.374
19053.4     35.057   129.706
19330.5     35.606    54.941
19611.7     34.444   -13.506
19897.0     33.333   -64.321
20186.4     30.445  -102.265
20480.0     29.039  -112.343
20777.9     27.113  -116.504
21080.1     23.684  -125.040
21386.7     23.740  -144.998
21697.8     25.300  -150.474
22013.4     25.565  -108.462
22333.6     25.901   -31.758
22658.4     28.735    63.702
22988.0     27.966   174.167
23322.4     28.809   -45.499
23661.6     30.382   115.427
24005.8     29.886   114.024
24355.0     31.398   115.961
24709.2     32.402   -63.781
25068.6     33.735   146.308
25433.2     31.952   -23.043
25803.2     25.274  -158.726
26178.5     20.528   107.413
26559.3     15.783   110.535
26945.6     21.457   -47.774
27337.5     18.582  -112.630
27735.2     16.099   107.830
28138.6     16.665  -173.233
28547.9     16.513    17.061
28963.1     20.026    16.626
29384.4     23.270  -153.630
29811.8     22.510   -52.113
30245.4     20.034    -2.707
30685.3     21.243   -71.371
31131.7     19.658   142.238
31584.5     17.221  -120.260
32043.9     15.263   -35.963
32510.0     16.010   -81.925
32982.8     14.655   -15.696
33462.6     13.669   -68.050
33949.3     14.170   -48.935
34443.1     13.164   112.367
34944.1     14.571   -16.374
35452.4     14.292   104.537
35968.0     15.355    -5.849
36491.2     14.035   -58.363
37022.0     14.109   -83.439
37560.5     15.794    11.564
38106.8     14.863   -32.180
38661.1     15.362   -78.077
39223.4     13.735    57.095
39793.9     15.533    16.457
