Freq[Hz]     dBSPL  Phase[Deg]
5.00000    -11.080   158.671
5.07273    -13.575   160.482
5.14651    -14.774   148.439
5.22137    -12.353    97.709
5.29732     -9.931    46.978
5.37437     -7.509    -3.752
5.45254     -5.087   -54.483
5.53185     -3.167   -82.244
5.61231     -1.779   -85.707
5.69394     -0.391   -89.170
5.77676      0.997   -92.633
5.86079      2.368   -96.118
5.94604      2.750  -100.846
6.03252      3.133  -105.573
6.12027      3.515  -110.301
6.20929      3.897  -115.029
6.29961      3.522  -120.499
6.39124      2.979  -126.133
6.48420      2.436  -131.767
6.57851      1.893  -137.401
6.67420     -1.105  -147.652
6.77128     -4.501  -158.653
6.86977     -7.897  -169.655
6.96969    -10.519   175.071
7.07107     -7.252   127.289
7.17392     -3.986    79.507
7.27827     -0.720    31.725
7.38413      1.796     6.621
7.49154      3.730    -0.964
7.60050      5.665    -8.549
7.71105      7.344   -16.083
7.82321      7.898   -23.394
7.93701      8.453   -30.705
8.05245      9.007   -38.016
8.16958      8.311   -46.103
8.28841      7.568   -54.220
8.40896      6.825   -62.336
8.53128      1.770   -88.583
8.65537     -3.841  -117.170
8.78126     -9.452  -145.756
8.90899     -3.303   -69.927
9.03857      3.617    12.744
9.17004     10.040    85.187
9.30342     12.508    76.220
9.43874     14.976    67.252
9.57603     16.949    58.625
9.71532     18.164    50.522
9.85663     19.379    42.418
10.0000     19.905    34.868
10.1455     20.238    27.472
10.2930     20.324    20.632
10.4427     19.717    15.347
10.5946     19.110    10.061
10.7487     17.591    12.754
10.9051     15.890    17.041
11.0637     15.462    29.687
11.2246     16.379    51.177
11.3879     17.703    68.474
11.5535     20.508    70.488
11.7216     23.295    72.367
11.8921     25.051    66.363
12.0650     26.806    60.358
12.2405     27.862    52.617
12.4186     28.827    44.651
12.5992     29.251    36.443
12.7825     29.555    28.181
12.9684     29.299    20.756
13.1570     28.914    13.525
13.3484     27.820     9.710
13.5426     26.612     6.450
13.7395     25.086    15.265
13.9394     23.873    25.420
14.1421     25.142    42.230
14.3478     26.755    54.293
14.5565     29.109    56.147
14.7683     31.023    54.068
14.9831     32.598    48.950
15.2010     33.534    42.441
15.4221     34.244    35.842
15.6464     34.440    29.888
15.8740     34.361    25.652
16.1049     34.063    22.790
16.3392     33.711    25.359
16.5768     33.697    29.873
16.8179     34.179    36.918
17.0626     35.491    41.396
17.3107     36.953    43.519
17.5625     38.480    42.561
17.8180     39.708    38.937
18.0771     40.729    34.757
18.3401     41.537    30.277
18.6068     42.093    26.327
18.8775     42.548    23.336
19.1521     42.980    21.172
19.4306     43.440    19.790
19.7133     44.019    18.829
20.0000     44.674    17.542
20.2909     45.346    15.809
20.5860     45.987    13.642
20.8855     46.558    11.224
21.1893     47.026     9.032
21.4975     47.455     7.409
21.8102     47.907     6.353
22.1274     48.429     5.654
22.4492     49.043     4.939
22.7758     49.732     3.807
23.1071     50.442     2.025
23.4432     51.107    -0.348
23.7841     51.688    -3.022
24.1301     52.191    -5.617
24.4811     52.647    -7.897
24.8372     53.097    -9.797
25.1984     53.581   -11.436
25.5649     54.114   -13.037
25.9368     54.689   -14.815
26.3141     55.280   -16.878
26.6968     55.866   -19.208
27.0851     56.428   -21.698
27.4791     56.967   -24.220
27.8788     57.492   -26.676
28.2843     58.017   -29.039
28.6957     58.555   -31.346
29.1131     59.110   -33.665
29.5365     59.675   -36.050
29.9661     60.241   -38.517
30.4020     60.802   -41.036
30.8442     61.351   -43.551
31.2929     61.894   -46.032
31.7480     62.434   -48.488
32.2098     62.970   -50.946
32.6783     63.496   -53.417
33.1536     64.007   -55.876
33.6359     64.506   -58.291
34.1251     65.001   -60.650
34.6215     65.498   -62.996
35.1250     65.998   -65.395
35.6359     66.500   -67.927
36.1543     66.995   -70.598
36.6802     67.476   -73.387
37.2137     67.944   -76.245
37.7550     68.407   -79.142
38.3041     68.871   -82.103
38.8613     69.339   -85.156
39.4265     69.802   -88.315
40.0000     70.263   -91.549
40.5818     70.720   -94.862
41.1721     71.166   -98.292
41.7710     71.588  -101.815
42.3785     71.971  -105.300
42.9949     72.330  -108.597
43.6203     72.690  -111.708
44.2548     73.066  -114.776
44.8985     73.450  -117.955
45.5515     73.823  -121.253
46.2141     74.186  -124.635
46.8863     74.537  -128.087
47.5683     74.880  -131.605
48.2602     75.219  -135.184
48.9621     75.558  -138.859
49.6743     75.887  -142.643
50.3968     76.200  -146.477
51.1299     76.497  -150.294
51.8736     76.789  -154.098
52.6281     77.070  -157.924
53.3936     77.336  -161.772
54.1702     77.586  -165.643
54.9581     77.820  -169.562
55.7575     78.036  -173.542
56.5685     78.234  -177.579
57.3914     78.414   178.329
58.2261     78.573   174.218
59.0730     78.712   170.200
59.9323     78.850   166.336
60.8040     78.992   162.554
61.6884     79.126   158.820
62.5857     79.243   155.191
63.4960     79.348   151.611
64.4196     79.422   148.016
65.3566     79.459   144.486
66.3073     79.474   140.985
67.2717     79.463   137.478
68.2502     79.440   134.083
69.2429     79.430   130.766
70.2501     79.437   127.419
71.2719     79.446   124.077
72.3086     79.449   120.770
73.3603     79.430   117.483
74.4274     79.376   114.323
75.5099     79.299   111.363
76.6083     79.208   108.555
77.7226     79.122   105.957
78.8531     79.066   103.420
80.0000     79.031   100.834
81.1636     79.002    98.230
82.3442     78.975    95.653
83.5419     78.940    93.090
84.7570     78.886    90.610
85.9899     78.828    88.245
87.2406     78.772    85.904
88.5096     78.717    83.515
89.7970     78.652    81.072
91.1031     78.567    78.593
92.4282     78.438    76.209
93.7726     78.284    74.216
95.1366     78.161    72.541
96.5204     78.060    70.910
97.9243     77.976    69.412
99.3486     77.926    67.897
100.794     77.893    66.309
102.260     77.872    64.629
103.747     77.851    62.916
105.256     77.828    61.182
106.787     77.802    59.396
108.340     77.740    57.545
109.916     77.639    55.930
111.515     77.564    54.709
113.137     77.539    53.446
114.783     77.530    52.092
116.452     77.520    50.734
118.146     77.516    49.349
119.865     77.520    47.937
121.608     77.526    46.537
123.377     77.541    45.090
125.171     77.553    43.661
126.992     77.553    42.092
128.839     77.554    40.433
130.713     77.546    38.634
132.615     77.516    36.956
134.543     77.493    35.501
136.500     77.486    34.041
138.486     77.473    32.614
140.500     77.462    31.089
142.544     77.454    29.275
144.617     77.385    27.844
146.721     77.349    26.973
148.855     77.405    25.775
151.020     77.461    23.924
153.217     77.433    21.875
155.445     77.354    20.268
157.706     77.289    18.683
160.000     77.141    17.398
162.327     77.084    16.835
164.688     77.106    16.021
167.084     77.236    15.090
169.514     77.321    11.910
171.980     76.983     9.752
174.481     76.823     9.829
177.019     76.828     9.538
179.594     76.843     8.917
182.206     76.841     8.130
184.856     76.891     7.745
187.545     77.024     7.091
190.273     77.198     5.880
193.041     77.343     3.964
195.849     77.393     2.053
198.697     77.431     0.269
201.587     77.498    -1.891
204.520     77.418    -4.463
207.494     77.269    -6.320
210.512     77.132    -7.198
213.574     77.106    -8.514
216.681     77.064    -9.634
219.833     76.946   -11.126
223.030     76.867   -11.897
226.274     76.751   -12.884
229.565     76.749   -12.934
232.905     76.821   -13.603
236.292     76.835   -14.374
239.729     76.913   -15.381
243.216     77.033   -16.981
246.754     77.055   -18.317
250.343     77.076   -19.732
253.984     77.174   -21.223
257.678     77.188   -23.338
261.426     77.132   -25.446
265.229     77.084   -28.184
269.087     76.674   -29.365
273.001     76.569   -28.767
276.972     76.646   -29.494
281.000     76.644   -30.673
285.088     76.622   -31.688
289.234     76.600   -32.759
293.441     76.680   -34.057
297.709     76.675   -35.833
302.040     76.634   -38.286
306.433     76.270   -39.702
310.890     76.295   -39.779
315.412     76.289   -42.180
320.000     76.079   -44.468
324.655     75.688   -45.204
329.377     75.635   -44.685
334.168     75.567   -45.957
339.028     75.501   -46.191
343.959     75.501   -46.897
348.962     75.522   -47.797
354.038     75.531   -48.786
359.188     75.642   -50.095
364.412     75.571   -52.551
369.713     75.483   -53.033
375.090     75.595   -54.348
380.546     75.677   -56.362
386.081     75.662   -58.171
391.697     75.673   -60.308
397.394     75.791   -62.301
403.175     75.651   -65.692
409.039     75.582   -67.392
414.989     75.574   -69.459
421.025     75.597   -71.737
427.149     75.574   -74.160
433.362     75.578   -76.278
439.665     75.662   -78.929
446.060     75.547   -82.322
452.548     75.542   -84.942
459.131     75.451   -87.686
465.809     75.496   -90.268
472.584     75.396   -93.651
479.458     75.313   -96.303
486.432     75.271   -99.245
493.507     75.160  -102.290
500.686     75.053  -105.096
507.968     74.956  -107.724
515.357     74.854  -110.346
522.853     74.751  -112.845
530.458     74.647  -115.200
538.174     74.548  -117.379
546.002     74.464  -119.442
553.943     74.383  -121.340
562.001     74.318  -123.123
570.175     74.261  -124.757
578.469     74.226  -126.417
586.883     74.196  -128.044
595.419     74.187  -129.717
604.080     74.195  -131.449
612.866     74.213  -133.270
621.780     74.243  -135.221
630.824     74.278  -137.381
640.000     74.323  -139.590
649.309     74.363  -141.960
658.753     74.397  -144.511
668.335     74.432  -147.228
678.056     74.443  -150.080
687.919     74.439  -153.052
697.925     74.418  -156.135
708.077     74.366  -159.218
718.376     74.291  -162.396
728.825     74.191  -165.563
739.426     74.067  -168.691
750.181     73.918  -171.772
761.093     73.749  -174.667
772.163     73.560  -177.462
783.394     73.379   179.926
794.789     73.199   177.496
806.349     73.025   175.287
818.078     72.882   173.175
829.977     72.772   171.135
842.050     72.705   169.089
854.298     72.675   166.942
866.724     72.678   164.608
879.330     72.710   161.922
892.120     72.756   158.916
905.097     72.788   155.498
918.262     72.802   151.695
931.618     72.777   147.530
945.169     72.701   143.052
958.917     72.562   138.353
972.864     72.348   133.577
987.015     72.045   128.750
1001.37     71.654   124.077
1015.94     71.169   119.653
1030.71     70.619   115.841
1045.71     69.999   112.680
1060.92     69.355   110.410
1076.35     68.742   109.204
1092.00     68.237   108.927
1107.89     67.906   109.278
1124.00     67.777   109.654
1140.35     67.837   109.511
1156.94     68.021   108.247
1173.77     68.256   105.788
1190.84     68.472   102.196
1208.16     68.616    97.704
1225.73     68.661    92.554
1243.56     68.590    86.966
1261.65     68.400    81.238
1280.00     68.110    75.611
1298.62     67.754    70.261
1317.51     67.343    65.314
1336.67     66.925    60.734
1356.11     66.544    56.477
1375.84     66.220    52.208
1395.85     65.969    47.748
1416.15     65.777    42.825
1436.75     65.596    37.436
1457.65     65.422    31.336
1478.85     65.229    24.772
1500.36     65.015    17.873
1522.19     64.808    10.794
1544.33     64.623     3.494
1566.79     64.514    -4.077
1589.58     64.500   -12.082
1612.70     64.572   -20.576
1636.16     64.707   -29.789
1659.95     64.865   -39.683
1684.10     65.011   -50.052
1708.60     65.113   -60.543
1733.45     65.150   -70.646
1758.66     65.138   -80.155
1784.24     65.126   -88.589
1810.19     65.149   -95.687
1836.52     65.283  -101.955
1863.24     65.549  -107.740
1890.34     65.926  -113.468
1917.83     66.335  -119.426
1945.73     66.701  -125.442
1974.03     67.016  -131.236
2002.74     67.273  -136.329
2031.87     67.562  -140.689
2061.43     67.935  -144.577
2091.41     68.406  -148.557
2121.83     68.909  -153.133
2152.69     69.362  -158.148
2184.01     69.706  -163.276
2215.77     69.966  -167.911
2248.00     70.228  -171.785
2280.70     70.582  -175.228
2313.87     71.061  -179.074
2347.53     71.562   176.021
2381.68     71.949   170.088
2416.32     72.126   163.860
2451.46     72.094   158.259
2487.12     71.971   154.059
2523.30     71.928   151.177
2560.00     72.064   148.537
2597.24     72.289   145.102
2635.01     72.439   140.856
2673.34     72.419   136.709
2712.23     72.310   133.670
2751.68     72.296   131.834
2791.70     72.494   130.139
2832.31     72.814   127.383
2873.50     73.089   123.611
2915.30     73.254   119.550
2957.70     73.373   115.603
3000.72     73.504   111.468
3044.37     73.583   106.645
3088.65     73.485   101.401
3133.58     73.188    96.750
3179.16     72.805    93.392
3225.40     72.482    90.917
3272.31     72.181    88.479
3319.91     71.749    86.426
3368.20     71.242    86.379
3417.19     71.009    88.670
3466.89     71.270    90.849
3517.32     71.772    90.855
3568.48     72.234    89.223
3620.39     72.676    86.866
3673.05     73.137    83.419
3726.47     73.486    78.435
3780.67     73.577    72.683
3835.67     73.426    67.325
3891.46     73.150    62.713
3948.06     72.792    58.612
4005.49     72.294    55.124
4063.75     71.655    53.053
4122.86     71.055    53.267
4182.82     70.759    55.298
4243.66     70.876    57.018
4305.39     71.185    56.837
4368.01     71.469    55.190
4431.55     71.703    52.466
4496.01     71.782    48.495
4561.40     71.543    44.412
4627.75     71.113    41.887
4695.06     70.664    40.531
4763.35     70.101    40.822
4832.64     69.829    44.757
4902.93     70.363    47.943
4974.24     71.018    46.895
5046.60     71.513    44.719
5120.00     72.070    40.529
5194.47     72.189    33.735
5270.03     71.800    28.640
5346.68     71.458    25.053
5424.45     70.841    21.262
5503.35     70.061    21.608
5583.40     69.865    23.154
5664.61     69.631    23.755
5747.01     69.791    26.294
5830.60     70.297    24.565
5915.41     70.386    21.754
6001.45     70.607    18.196
6088.74     70.243    12.027
6177.30     69.429    10.057
6267.15     68.740     9.226
6358.31     67.828    13.419
6450.80     68.191    19.585
6544.62     68.721    20.805
6639.82     69.575    20.392
6736.40     70.066    14.013
6834.38     69.921     8.607
6933.79     69.402     2.646
7034.64     68.286     2.154
7136.96     67.893     5.092
7240.77     67.864     8.702
7346.09     68.533     8.221
7452.94     68.593     4.448
7561.35     68.525     0.288
7671.33     67.774    -2.857
7782.91     67.188    -2.805
7896.12     66.591     0.285
8010.97     66.954     2.461
8127.49     67.073     1.116
8245.71     66.969    -3.402
8365.65     65.962    -4.712
8487.33     65.212    -2.924
8610.78     64.877     2.321
8736.03     65.036     3.325
8863.09     65.218     2.227
8992.01     64.650    -1.784
9122.80     63.762    -2.352
9255.50     63.004     3.047
9390.12     63.400     5.666
9526.70     63.781     2.863
9665.27     63.233    -3.118
9805.86     61.928    -5.867
9948.49     60.717     1.803
10093.2     61.098    10.889
10240.0     62.327     9.611
10388.9     62.393     3.942
10540.1     61.241    -0.212
10693.4     60.032     6.042
10848.9     60.483    16.530
11006.7     61.613    17.108
11166.8     61.689    10.986
11329.2     60.651    11.199
11494.0     60.556    21.320
11661.2     61.867    23.990
11830.8     62.413    16.920
12002.9     61.192    14.485
12177.5     60.888    27.771
12354.6     63.129    31.794
12534.3     64.042    21.274
12716.6     63.319    16.678
12901.6     63.461    20.391
13089.2     64.369    17.657
13279.6     64.352    10.113
13472.8     63.498     8.068
13668.8     63.437    11.840
13867.6     64.042     9.526
14069.3     63.811     5.541
14273.9     63.401     7.863
14481.5     64.334    10.646
14692.2     65.251     3.895
14905.9     65.066    -2.201
15122.7     65.525    -4.735
15342.7     65.897   -15.783
15565.8     64.856   -25.750
15792.2     63.943   -27.261
16021.9     64.003   -31.987
16255.0     63.243   -40.337
16491.4     62.607   -43.755
16731.3     62.569   -53.152
16974.7     61.177   -68.483
17221.6     58.820   -76.800
17472.1     57.004   -84.558
17726.2     54.374   -98.345
17984.0     49.970  -116.712
18245.6     39.624  -161.528
18511.0     37.141    72.395
18780.2     45.040    54.261
19053.4     50.140    37.027
19330.5     50.698    15.455
19611.7     50.126    12.576
19897.0     50.574     4.739
20186.4     49.144     0.679
20480.0     49.565    -1.746
20777.9     47.489   -18.463
21080.1     44.238    -8.846
21386.7     41.857   -13.957
21697.8     39.529    32.773
22013.4     41.383    19.823
22333.6     38.641    63.010
22658.4     44.392    61.808
22988.0     44.357    59.837
23322.4     45.779    55.541
23661.6     45.503    55.365
24005.8     47.246    51.324
24355.0     47.406    39.291
24709.2     47.352    25.424
25068.6     45.752     2.170
25433.2     41.477    -7.342
25803.2     37.280   -12.666
26178.5     28.870    -9.664
26559.3     23.543    83.160
26945.6     36.167   123.575
27337.5     39.362    72.417
27735.2     33.433    90.108
28138.6     37.623   107.234
28547.9     39.764    96.316
28963.1     40.506    91.523
29384.4     40.613    78.860
29811.8     39.697    72.066
30245.4     38.223    66.526
30685.3     37.084    63.139
31131.7     35.255    57.727
31584.5     31.971    56.500
32043.9     28.641    71.718
32510.0     28.011    90.765
32982.8     27.811   105.282
33462.6     29.095    97.051
33949.3     26.939    89.164
34443.1     23.353    92.892
34944.1     20.464  -157.543
35452.4     19.038    65.605
35968.0     17.076   167.146
36491.2     16.554    31.701
37022.0     17.502    21.450
37560.5     15.500    -9.595
38106.8     15.021   177.552
38661.1     17.030  -177.286
39223.4     21.115   143.419
39793.9     23.391   -68.513
