Freq[Hz]     dBSPL  Phase[Deg]
5.00000    -11.624   158.076
5.07273    -14.119   159.872
5.14651    -15.318   147.815
5.22137    -12.896    97.069
5.29732    -10.473    46.323
5.37437     -8.050    -4.423
5.45254     -5.627   -55.169
5.53185     -3.707   -82.946
5.61231     -2.318   -86.425
5.69394     -0.929   -89.903
5.77676      0.460   -93.382
5.86079      1.832   -96.882
5.94604      2.216  -101.625
6.03252      2.599  -106.368
6.12027      2.983  -111.112
6.20929      3.366  -115.855
6.29961      2.993  -121.338
6.39124      2.452  -126.987
6.48420      1.911  -132.635
6.57851      1.370  -138.283
6.67420     -1.626  -148.547
6.77128     -5.021  -159.561
6.86977     -8.415  -170.575
6.96969    -11.035   174.138
7.07107     -7.767   126.346
7.17392     -4.498    78.554
7.27827     -1.230    30.761
7.38413      1.288     5.648
7.49154      3.225    -1.945
7.60050      5.161    -9.538
7.71105      6.842   -17.080
7.82321      7.399   -24.396
7.93701      7.955   -31.713
8.05245      8.512   -39.030
8.16958      7.818   -47.120
8.28841      7.077   -55.240
8.40896      6.336   -63.359
8.53128      1.283   -89.607
8.65537     -4.327  -118.194
8.78126     -9.936  -146.782
8.90899     -3.785   -70.951
9.03857      3.136    11.721
9.17004      9.561    84.165
9.30342     12.030    75.199
9.43874     14.499    66.234
9.57603     16.472    57.610
9.71532     17.687    49.509
9.85663     18.902    41.408
10.0000     19.428    33.860
10.1455     19.761    26.466
10.2930     19.846    19.628
10.4427     19.238    14.343
10.5946     18.630     9.057
10.7487     17.109    11.749
10.9051     15.406    16.033
11.0637     14.976    28.675
11.2246     15.891    50.158
11.3879     17.212    67.448
11.5535     20.015    69.450
11.7216     22.799    71.318
11.8921     24.552    65.296
12.0650     26.304    59.274
12.2405     27.356    51.510
12.4186     28.318    43.521
12.5992     28.739    35.283
12.7825     29.040    26.990
12.9684     28.782    19.528
13.1570     28.393    12.259
13.3484     27.297     8.399
13.5426     26.087     5.093
13.7395     24.559    13.858
13.9394     23.345    23.960
14.1421     24.613    40.712
14.3478     26.226    52.717
14.5565     28.581    54.510
14.7683     30.497    52.368
14.9831     32.074    47.186
15.2010     33.013    40.613
15.4221     33.726    33.949
15.6464     33.927    27.932
15.8740     33.853    23.635
16.1049     33.561    20.711
16.3392     33.216    23.224
16.5768     33.210    27.685
16.8179     33.699    34.679
17.0626     35.019    39.113
17.3107     36.490    41.195
17.5625     38.027    40.202
17.8180     39.264    36.550
18.0771     40.294    32.345
18.3401     41.111    27.846
18.6068     41.675    23.881
18.8775     42.139    20.880
19.1521     42.578    18.708
19.4306     43.046    17.321
19.7133     43.631    16.356
20.0000     44.292    15.066
20.2909     44.968    13.329
20.5860     45.615    11.156
20.8855     46.189     8.728
21.1893     46.661     6.521
21.4975     47.093     4.877
21.8102     47.548     3.795
22.1274     48.073     3.063
22.4492     48.691     2.310
22.7758     49.385     1.133
23.1071     50.100    -0.698
23.4432     50.773    -3.124
23.7841     51.363    -5.853
24.1301     51.878    -8.501
24.4811     52.345   -10.830
24.8372     52.810   -12.773
25.1984     53.310   -14.444
25.5649     53.861   -16.064
25.9368     54.454   -17.847
26.3141     55.064   -19.896
26.6968     55.668   -22.193
27.0851     56.249   -24.631
27.4791     56.803   -27.082
27.8788     57.343   -29.449
28.2843     57.878   -31.710
28.6957     58.425   -33.905
29.1131     58.983   -36.109
29.5365     59.548   -38.381
29.9661     60.111   -40.744
30.4020     60.664   -43.174
30.8442     61.201   -45.624
31.2929     61.732   -48.067
31.7480     62.258   -50.515
32.2098     62.779   -52.995
32.6783     63.292   -55.523
33.1536     63.793   -58.068
33.6359     64.287   -60.590
34.1251     64.779   -63.073
34.6215     65.281   -65.550
35.1250     65.790   -68.078
35.6359     66.306   -70.724
36.1543     66.819   -73.488
36.6802     67.322   -76.341
37.2137     67.812   -79.230
37.7550     68.298   -82.125
38.3041     68.784   -85.051
38.8613     69.269   -88.046
39.4265     69.746   -91.131
40.0000     70.216   -94.286
40.5818     70.678   -97.525
41.1721     71.127  -100.899
41.7710     71.549  -104.387
42.3785     71.931  -107.865
42.9949     72.290  -111.180
43.6203     72.653  -114.328
44.2548     73.036  -117.446
44.8985     73.432  -120.672
45.5515     73.820  -124.004
46.2141     74.201  -127.400
46.8863     74.571  -130.836
47.5683     74.933  -134.307
48.2602     75.288  -137.816
48.9621     75.639  -141.405
49.6743     75.977  -145.101
50.3968     76.294  -148.857
51.1299     76.595  -152.615
51.8736     76.889  -156.383
52.6281     77.175  -160.192
53.3936     77.449  -164.031
54.1702     77.711  -167.883
54.9581     77.961  -171.757
55.7575     78.192  -175.653
56.5685     78.401  -179.563
57.3914     78.588   176.502
58.2261     78.744   172.558
59.0730     78.871   168.684
59.9323     78.987   164.908
60.8040     79.105   161.137
61.6884     79.216   157.322
62.5857     79.321   153.540
63.4960     79.425   149.764
64.4196     79.514   145.976
65.3566     79.580   142.308
66.3073     79.633   138.754
67.2717     79.659   135.297
68.2502     79.667   132.038
69.2429     79.678   128.902
70.2501     79.691   125.737
71.2719     79.697   122.535
72.3086     79.693   119.306
73.3603     79.670   116.042
74.4274     79.620   112.876
75.5099     79.551   109.914
76.6083     79.473   107.136
77.7226     79.401   104.606
78.8531     79.355   102.163
80.0000     79.325    99.675
81.1636     79.298    97.155
82.3442     79.272    94.643
83.5419     79.240    92.132
84.7570     79.189    89.704
85.9899     79.135    87.397
87.2406     79.082    85.114
88.5096     79.028    82.773
89.7970     78.964    80.359
91.1031     78.883    77.893
92.4282     78.762    75.522
93.7726     78.620    73.559
95.1366     78.509    71.942
96.5204     78.419    70.392
97.9243     78.344    68.989
99.3486     78.301    67.575
100.794     78.272    66.087
102.260     78.253    64.503
103.747     78.231    62.873
105.256     78.208    61.200
106.787     78.183    59.455
108.340     78.126    57.643
109.916     78.032    56.084
111.515     77.965    54.944
113.137     77.944    53.774
114.783     77.937    52.502
116.452     77.929    51.215
118.146     77.927    49.897
119.865     77.932    48.554
121.608     77.938    47.208
123.377     77.954    45.780
125.171     77.975    44.352
126.992     77.993    42.818
128.839     78.013    41.272
130.713     78.015    39.642
132.615     77.983    38.120
134.543     77.957    36.755
136.500     77.951    35.353
138.486     77.945    33.997
140.500     77.940    32.584
142.544     77.932    30.891
144.617     77.862    29.538
146.721     77.828    28.727
148.855     77.890    27.601
151.020     77.952    25.834
153.217     77.929    23.872
155.445     77.856    22.355
157.706     77.795    20.863
160.000     77.653    19.672
162.327     77.603    19.208
164.688     77.631    18.500
167.084     77.764    17.678
169.514     77.854    14.594
171.980     77.524    12.544
174.481     77.369    12.742
177.019     77.375    12.549
179.594     77.397    12.010
182.206     77.404    11.356
184.856     77.457    11.130
187.545     77.586    10.558
190.273     77.767     9.406
193.041     77.924     7.603
195.849     77.977     5.825
198.697     78.017     4.132
201.587     78.092     2.036
204.520     78.025    -0.440
207.494     77.886    -2.165
210.512     77.754    -2.924
213.574     77.737    -4.158
216.681     77.708    -5.159
219.833     77.594    -6.526
223.030     77.524    -7.235
226.274     77.425    -8.098
229.565     77.425    -8.031
232.905     77.510    -8.719
236.292     77.562    -9.388
239.729     77.655   -10.111
243.216     77.770   -11.589
246.754     77.806   -12.865
250.343     77.835   -14.135
253.984     77.937   -15.621
257.678     77.981   -17.694
261.426     77.942   -19.620
265.229     77.900   -22.272
269.087     77.501   -23.403
273.001     77.411   -22.797
276.972     77.512   -23.461
281.000     77.524   -24.547
285.088     77.517   -25.515
289.234     77.509   -26.523
293.441     77.596   -27.768
297.709     77.596   -29.604
302.040     77.583   -32.103
306.433     77.234   -33.428
310.890     77.266   -33.525
315.412     77.271   -35.913
320.000     77.067   -38.212
324.655     76.680   -38.974
329.377     76.638   -38.487
334.168     76.572   -39.695
339.028     76.495   -39.974
343.959     76.500   -40.730
348.962     76.523   -41.583
354.038     76.521   -42.509
359.188     76.618   -43.799
364.412     76.535   -46.230
369.713     76.435   -46.677
375.090     76.538   -47.921
380.546     76.602   -49.836
386.081     76.578   -51.565
391.697     76.574   -53.525
397.394     76.671   -55.443
403.175     76.536   -58.684
409.039     76.451   -60.146
414.989     76.436   -62.056
421.025     76.453   -64.088
427.149     76.421   -66.340
433.362     76.426   -68.256
439.665     76.519   -70.739
446.060     76.415   -73.825
452.548     76.414   -76.247
459.131     76.337   -78.730
465.809     76.388   -81.116
472.584     76.307   -84.350
479.458     76.250   -86.786
486.432     76.227   -89.578
493.507     76.132   -92.464
500.686     76.053   -95.180
507.968     75.978   -97.718
515.357     75.897  -100.275
522.853     75.810  -102.739
530.458     75.720  -105.093
538.174     75.634  -107.316
546.002     75.550  -109.374
553.943     75.466  -111.344
562.001     75.387  -113.125
570.175     75.308  -114.807
578.469     75.234  -116.454
586.883     75.171  -118.018
595.419     75.116  -119.551
604.080     75.069  -121.072
612.866     75.036  -122.616
621.780     75.017  -124.168
630.824     75.007  -125.768
640.000     75.011  -127.430
649.309     75.028  -129.097
658.753     75.053  -130.905
668.335     75.088  -132.828
678.056     75.128  -134.854
687.919     75.169  -137.021
697.925     75.208  -139.321
708.077     75.248  -141.732
718.376     75.277  -144.239
728.825     75.296  -146.903
739.426     75.298  -149.687
750.181     75.291  -152.580
761.093     75.265  -155.571
772.163     75.218  -158.527
783.394     75.147  -161.582
794.789     75.054  -164.684
806.349     74.937  -167.750
818.078     74.796  -170.774
829.977     74.634  -173.732
842.050     74.448  -176.568
854.298     74.238  -179.306
866.724     74.023   178.175
879.330     73.793   175.827
892.120     73.555   173.746
905.097     73.332   171.875
918.262     73.130   170.276
931.618     72.956   168.951
945.169     72.826   167.776
958.917     72.755   166.687
972.864     72.755   165.635
987.015     72.809   164.445
1001.37     72.927   162.935
1015.94     73.094   161.116
1030.71     73.292   158.845
1045.71     73.510   156.045
1060.92     73.729   152.688
1076.35     73.932   148.899
1092.00     74.099   144.648
1107.89     74.229   139.954
1124.00     74.302   134.910
1140.35     74.315   129.590
1156.94     74.263   124.021
1173.77     74.142   118.319
1190.84     73.949   112.582
1208.16     73.689   106.880
1225.73     73.361   101.251
1243.56     72.974    95.753
1261.65     72.544    90.561
1280.00     72.079    85.691
1298.62     71.601    81.163
1317.51     71.123    76.827
1336.67     70.674    72.669
1356.11     70.257    68.576
1375.84     69.875    64.415
1395.85     69.512    59.913
1416.15     69.173    55.092
1436.75     68.828    49.941
1457.65     68.458    44.337
1478.85     68.063    38.408
1500.36     67.639    32.220
1522.19     67.186    25.826
1544.33     66.725    19.222
1566.79     66.273    12.434
1589.58     65.849     5.425
1612.70     65.475    -1.832
1636.16     65.150    -9.375
1659.95     64.882   -17.300
1684.10     64.672   -25.461
1708.60     64.553   -33.675
1733.45     64.509   -41.747
1758.66     64.578   -49.592
1784.24     64.772   -57.116
1810.19     65.106   -64.345
1836.52     65.573   -71.590
1863.24     66.140   -78.940
1890.34     66.755   -86.483
1917.83     67.373   -94.220
1945.73     67.941  -101.890
1974.03     68.429  -109.376
2002.74     68.858  -116.442
2031.87     69.234  -122.818
2061.43     69.583  -128.512
2091.41     69.966  -133.665
2121.83     70.383  -138.407
2152.69     70.844  -142.995
2184.01     71.335  -147.673
2215.77     71.836  -152.555
2248.00     72.317  -157.672
2280.70     72.760  -162.999
2313.87     73.138  -168.542
2347.53     73.437  -174.152
2381.68     73.643  -179.632
2416.32     73.761   175.274
2451.46     73.824   170.749
2487.12     73.882   166.840
2523.30     73.973   163.381
2560.00     74.104   160.026
2597.24     74.249   156.612
2635.01     74.365   153.241
2673.34     74.457   150.199
2712.23     74.577   147.655
2751.68     74.791   145.361
2791.70     75.118   142.736
2832.31     75.495   139.308
2873.50     75.835   135.026
2915.30     76.081   130.194
2957.70     76.227   125.161
3000.72     76.281   120.114
3044.37     76.253   115.066
3088.65     76.133   110.081
3133.58     75.909   105.402
3179.16     75.595   101.165
3225.40     75.204    97.462
3272.31     74.719    94.451
3319.91     74.138    92.604
3368.20     73.553    92.715
3417.19     73.195    94.731
3466.89     73.199    97.252
3517.32     73.476    98.849
3568.48     73.875    99.435
3620.39     74.386    99.221
3673.05     75.019    97.612
3726.47     75.631    94.036
3780.67     76.057    88.977
3835.67     76.254    83.413
3891.46     76.274    77.797
3948.06     76.129    72.047
4005.49     75.731    66.458
4063.75     75.041    62.105
4122.86     74.195    60.285
4182.82     73.439    61.279
4243.66     72.985    64.583
4305.39     73.053    68.815
4368.01     73.663    71.126
4431.55     74.403    69.557
4496.01     74.851    65.264
4561.40     74.923    60.351
4627.75     74.700    55.903
4695.06     74.203    52.672
4763.35     73.541    52.110
4832.64     73.086    54.759
4902.93     73.130    58.804
4974.24     73.706    61.996
5046.60     74.660    61.947
5120.00     75.508    57.762
5194.47     75.921    51.723
5270.03     76.017    45.695
5346.68     75.845    39.509
5424.45     75.286    34.403
5503.35     74.590    32.064
5583.40     73.973    31.510
5664.61     73.431    33.228
5747.01     73.412    36.565
5830.60     73.786    37.761
5915.41     74.263    37.243
6001.45     74.788    33.876
6088.74     74.874    28.157
6177.30     74.505    22.983
6267.15     73.690    19.415
6358.31     72.675    21.343
6450.80     72.409    27.201
6544.62     72.885    32.256
6639.82     73.962    33.227
6736.40     74.853    28.782
6834.38     75.297    21.898
6933.79     75.058    13.546
7034.64     74.142     8.600
7136.96     73.128     8.120
7240.77     72.508    13.107
7346.09     73.011    17.183
7452.94     73.723    16.284
7561.35     74.237    11.366
7671.33     74.156     5.089
7782.91     73.579    -0.760
7896.12     72.477    -2.093
8010.97     71.926     1.281
8127.49     72.060     4.573
8245.71     72.544     2.449
8365.65     72.369    -2.662
8487.33     71.546    -7.344
8610.78     70.326    -7.019
8736.03     69.479    -2.537
8863.09     69.544     2.403
8992.01     69.858     2.062
9122.80     69.785    -1.972
9255.50     69.004    -4.815
9390.12     68.064    -4.167
9526.70     67.624     1.374
9665.27     68.501     3.336
9805.86     68.712    -5.973
9948.49     67.205   -11.598
10093.2     65.692    -4.578
10240.0     66.230     5.253
10388.9     67.580     4.422
10540.1     67.857    -4.545
10693.4     66.616   -12.831
10848.9     64.345    -8.594
11006.7     64.236     7.835
11166.8     65.979    10.753
11329.2     66.473     2.517
11494.0     65.057    -1.163
11661.2     64.171    11.017
11830.8     65.928    17.260
12002.9     66.916     7.463
12177.5     65.151    -1.789
12354.6     62.977    15.826
12534.3     65.745    30.075
12716.6     67.402    20.508
12901.6     66.928    14.583
13089.2     66.850    18.340
13279.6     67.926    17.953
13472.8     68.256     9.146
13668.8     67.016     5.956
13867.6     66.697    13.385
14069.3     67.667    15.367
14273.9     68.010    12.529
14481.5     68.215    14.759
14692.2     69.710    14.628
14905.9     70.652     3.606
15122.7     70.157    -4.426
15342.7     70.259    -6.493
15565.8     70.718   -15.310
15792.2     69.962   -25.731
16021.9     68.971   -27.793
16255.0     69.135   -30.061
16491.4     69.384   -40.401
16731.3     68.217   -51.268
16974.7     67.443   -58.488
17221.6     66.180   -71.616
17472.1     63.655   -81.888
17726.2     61.137   -86.650
17984.0     58.155   -96.556
18245.6     51.356  -111.262
18511.0     40.851   -17.717
18780.2     52.489    12.605
19053.4     54.548    10.047
19330.5     57.606     4.980
19611.7     57.873   -15.328
19897.0     56.121   -14.201
20186.4     57.592   -20.774
20480.0     54.965   -34.396
20777.9     54.590   -27.564
21080.1     53.358   -50.105
21386.7     47.588   -41.251
21697.8     47.115   -40.831
22013.4     36.634    -1.702
22333.6     41.809    41.576
22658.4     47.498    83.142
22988.0     52.284    52.499
23322.4     51.290    47.068
23661.6     53.108    43.079
24005.8     52.976    35.587
24355.0     53.974    29.724
24709.2     54.056    14.028
25068.6     52.810    -2.261
25433.2     50.677   -16.469
25803.2     45.724   -33.168
26178.5     39.998   -16.542
26559.3     34.811    29.994
26945.6     40.479    76.247
27337.5     46.943    56.601
27735.2     40.240    42.473
28138.6     44.127    76.232
28547.9     44.977    67.785
28963.1     47.189    64.358
29384.4     46.836    54.511
29811.8     46.781    43.708
30245.4     45.566    39.433
30685.3     44.649    32.246
31131.7     42.878    23.200
31584.5     40.126    16.077
32043.9     34.637    20.859
32510.0     33.370    47.881
32982.8     32.978    63.223
33462.6     33.716    62.771
33949.3     31.943    51.743
34443.1     28.026    45.572
34944.1     20.717    39.729
35452.4     21.381  -135.560
35968.0     25.729   147.783
36491.2     28.232   149.194
37022.0     26.315   145.512
37560.5     23.108   -31.696
38106.8     19.849    35.686
38661.1     18.460    91.217
39223.4     19.992   138.921
39793.9     28.178   -73.942
