Freq[Hz]     dBSPL  Phase[Deg]
5.00000    -11.875   157.093
5.07273    -14.369   158.872
5.14651    -15.567   146.798
5.22137    -13.143    96.035
5.29732    -10.719    45.271
5.37437     -8.295    -5.492
5.45254     -5.871   -56.255
5.53185     -3.949   -84.049
5.61231     -2.559   -87.545
5.69394     -1.168   -91.042
5.77676      0.223   -94.539
5.86079      1.596   -98.056
5.94604      1.982  -102.817
6.03252      2.367  -107.578
6.12027      2.753  -112.339
6.20929      3.138  -117.100
6.29961      2.767  -122.602
6.39124      2.227  -128.268
6.48420      1.688  -133.935
6.57851      1.148  -139.601
6.67420     -1.845  -149.883
6.77128     -5.237  -160.915
6.86977     -8.629  -171.947
6.96969    -11.247   172.749
7.07107     -7.976   124.938
7.17392     -4.705    77.128
7.27827     -1.435    29.317
7.38413      1.085     4.185
7.49154      3.025    -3.426
7.60050      4.964   -11.037
7.71105      6.648   -18.597
7.82321      7.207   -25.932
7.93701      7.766   -33.268
8.05245      8.326   -40.603
8.16958      7.635   -48.713
8.28841      6.896   -56.851
8.40896      6.158   -64.990
8.53128      1.108   -91.258
8.65537     -4.498  -119.866
8.78126    -10.104  -148.473
8.90899     -3.950   -72.663
9.03857      2.974     9.988
9.17004      9.402    82.411
9.30342     11.875    73.423
9.43874     14.347    64.436
9.57603     16.325    55.790
9.71532     17.544    47.666
9.85663     18.764    39.542
10.0000     19.294    31.970
10.1455     19.632    24.553
10.2930     19.722    17.691
10.4427     19.119    12.382
10.5946     18.516     7.072
10.7487     17.001     9.741
10.9051     15.304    14.001
11.0637     14.880    26.620
11.2246     15.802    48.081
11.3879     17.130    65.349
11.5535     19.939    67.331
11.7216     22.731    69.179
11.8921     24.492    63.140
12.0650     26.253    57.102
12.2405     27.314    49.324
12.4186     28.285    41.323
12.5992     28.715    33.078
12.7825     29.025    24.779
12.9684     28.777    17.316
13.1570     28.399    10.048
13.3484     27.314     6.196
13.5426     26.113     2.899
13.7395     24.596    11.681
13.9394     23.393    21.803
14.1421     24.671    38.582
14.3478     26.294    50.616
14.5565     28.659    52.446
14.7683     30.584    50.345
14.9831     32.170    45.208
15.2010     33.117    38.686
15.4221     33.837    32.075
15.6464     34.044    26.117
15.8740     33.976    21.881
16.1049     33.688    19.020
16.3392     33.347    21.599
16.5768     33.343    26.125
16.8179     33.834    33.185
17.0626     35.154    37.682
17.3107     36.624    39.826
17.5625     38.159    38.891
17.8180     39.393    35.290
18.0771     40.418    31.133
18.3401     41.229    26.674
18.6068     41.788    22.741
18.8775     42.245    19.764
19.1521     42.678    17.607
19.4306     43.138    16.227
19.7133     43.716    15.257
20.0000     44.370    13.951
20.2909     45.040    12.190
20.5860     45.681     9.984
20.8855     46.251     7.515
21.1893     46.718     5.258
21.4975     47.149     3.559
21.8102     47.602     2.416
22.1274     48.128     1.619
22.4492     48.748     0.799
22.7758     49.445    -0.446
23.1071     50.165    -2.344
23.4432     50.844    -4.835
23.7841     51.442    -7.627
24.1301     51.964   -10.333
24.4811     52.441   -12.716
24.8372     52.916   -14.708
25.1984     53.426   -16.423
25.5649     53.989   -18.084
25.9368     54.594   -19.903
26.3141     55.217   -21.986
26.6968     55.833   -24.312
27.0851     56.427   -26.778
27.4791     56.996   -29.254
27.8788     57.549   -31.642
28.2843     58.101   -33.922
28.6957     58.663   -36.131
29.1131     59.239   -38.342
29.5365     59.822   -40.615
29.9661     60.403   -42.969
30.4020     60.976   -45.377
30.8442     61.534   -47.791
31.2929     62.084   -50.183
31.7480     62.629   -52.565
32.2098     63.169   -54.966
32.6783     63.698   -57.400
33.1536     64.213   -59.840
33.6359     64.718   -62.252
34.1251     65.220   -64.624
34.6215     65.727   -66.993
35.1250     66.239   -69.422
35.6359     66.757   -71.984
36.1543     67.269   -74.682
36.6802     67.772   -77.487
37.2137     68.263   -80.348
37.7550     68.751   -83.229
38.3041     69.241   -86.154
38.8613     69.734   -89.152
39.4265     70.221   -92.237
40.0000     70.704   -95.382
40.5818     71.181   -98.598
41.1721     71.646  -101.928
41.7710     72.083  -105.352
42.3785     72.479  -108.749
42.9949     72.852  -111.969
43.6203     73.224  -115.017
44.2548     73.614  -118.037
44.8985     74.014  -121.175
45.5515     74.406  -124.437
46.2141     74.789  -127.779
46.8863     75.163  -131.178
47.5683     75.532  -134.624
48.2602     75.897  -138.110
48.9621     76.261  -141.668
49.6743     76.613  -145.318
50.3968     76.947  -149.007
51.1299     77.262  -152.675
51.8736     77.570  -156.339
52.6281     77.866  -160.036
53.3936     78.147  -163.767
54.1702     78.414  -167.529
54.9581     78.667  -171.336
55.7575     78.905  -175.187
56.5685     79.125  -179.066
57.3914     79.327   177.033
58.2261     79.504   173.144
59.0730     79.655   169.365
59.9323     79.795   165.733
60.8040     79.934   162.154
61.6884     80.059   158.568
62.5857     80.169   155.026
63.4960     80.270   151.475
64.4196     80.349   147.871
65.3566     80.401   144.328
66.3073     80.442   140.843
67.2717     80.462   137.412
68.2502     80.471   134.159
69.2429     80.490   131.038
70.2501     80.516   127.918
71.2719     80.537   124.794
72.3086     80.547   121.675
73.3603     80.535   118.538
74.4274     80.492   115.503
75.5099     80.431   112.667
76.6083     80.358   110.007
77.7226     80.292   107.593
78.8531     80.253   105.270
80.0000     80.230   102.904
81.1636     80.208   100.505
82.3442     80.186    98.103
83.5419     80.159    95.692
84.7570     80.115    93.359
85.9899     80.070    91.152
87.2406     80.028    88.989
88.5096     79.985    86.788
89.7970     79.929    84.526
91.1031     79.853    82.206
92.4282     79.737    79.967
93.7726     79.601    78.122
95.1366     79.499    76.623
96.5204     79.419    75.204
97.9243     79.354    73.950
99.3486     79.319    72.696
100.794     79.296    71.368
102.260     79.283    69.939
103.747     79.267    68.463
105.256     79.251    66.948
106.787     79.231    65.365
108.340     79.180    63.710
109.916     79.091    62.305
111.515     79.031    61.321
113.137     79.016    60.318
114.783     79.013    59.218
116.452     79.008    58.087
118.146     79.012    56.908
119.865     79.029    55.718
121.608     79.049    54.582
123.377     79.070    53.418
125.171     79.084    52.244
126.992     79.087    50.877
128.839     79.099    49.401
130.713     79.109    47.827
132.615     79.097    46.438
134.543     79.084    45.300
136.500     79.081    44.137
138.486     79.073    42.948
140.500     79.072    41.679
142.544     79.074    40.159
144.617     79.014    39.004
146.721     78.985    38.406
148.855     79.049    37.497
151.020     79.114    35.937
153.217     79.094    34.180
155.445     79.023    32.863
157.706     78.965    31.560
160.000     78.827    30.577
162.327     78.782    30.329
164.688     78.812    29.813
167.084     78.950    29.192
169.514     79.048    26.352
171.980     78.721    24.579
174.481     78.562    25.013
177.019     78.564    25.001
179.594     78.589    24.636
182.206     78.607    24.210
184.856     78.668    24.256
187.545     78.800    23.950
190.273     78.981    23.066
193.041     79.137    21.505
195.849     79.194    19.961
198.697     79.240    18.547
201.587     79.318    16.758
204.520     79.249    14.564
207.494     79.112    13.098
210.512     78.985    12.645
213.574     78.969    11.732
216.681     78.940    10.997
219.833     78.835     9.938
223.030     78.767     9.613
226.274     78.662     9.071
229.565     78.670     9.437
232.905     78.762     9.154
236.292     78.806     8.864
239.729     78.896     8.429
243.216     79.021     7.278
246.754     79.066     6.358
250.343     79.111     5.471
253.984     79.228     4.450
257.678     79.276     2.812
261.426     79.248     1.313
265.229     79.218    -0.892
269.087     78.837    -1.593
273.001     78.766    -0.493
276.972     78.880    -0.700
281.000     78.912    -1.318
285.088     78.924    -1.819
289.234     78.951    -2.388
293.441     79.072    -3.102
297.709     79.102    -4.454
302.040     79.123    -6.479
306.433     78.814    -7.351
310.890     78.892    -6.951
315.412     78.942    -8.889
320.000     78.790   -10.747
324.655     78.453   -11.069
329.377     78.455   -10.198
334.168     78.449   -11.081
339.028     78.433   -11.009
343.959     78.501   -11.433
348.962     78.575   -11.992
354.038     78.631   -12.685
359.188     78.780   -13.767
364.412     78.759   -16.001
369.713     78.707   -16.265
375.090     78.862   -17.350
380.546     78.967   -19.096
386.081     78.971   -20.707
391.697     79.005   -22.618
397.394     79.132   -24.358
403.175     79.006   -27.490
409.039     78.931   -28.875
414.989     78.927   -30.700
421.025     78.945   -32.556
427.149     78.910   -34.616
433.362     78.898   -36.344
439.665     78.976   -38.514
446.060     78.840   -41.342
452.548     78.818   -43.399
459.131     78.706   -45.461
465.809     78.726   -47.355
472.584     78.615   -49.978
479.458     78.521   -51.761
486.432     78.464   -53.790
493.507     78.352   -55.837
500.686     78.247   -57.552
507.968     78.168   -59.105
515.357     78.097   -60.511
522.853     78.034   -61.833
530.458     77.994   -62.903
538.174     77.979   -63.869
546.002     77.988   -64.666
553.943     78.024   -65.394
562.001     78.087   -66.016
570.175     78.180   -66.637
578.469     78.298   -67.346
586.883     78.440   -68.174
595.419     78.594   -69.174
604.080     78.763   -70.322
612.866     78.942   -71.709
621.780     79.121   -73.322
630.824     79.308   -75.142
640.000     79.478   -77.108
649.309     79.632   -79.244
658.753     79.773   -81.568
668.335     79.899   -84.065
678.056     79.998   -86.647
687.919     80.074   -89.352
697.925     80.127   -92.093
708.077     80.153   -94.831
718.376     80.151   -97.561
728.825     80.127  -100.282
739.426     80.082  -102.924
750.181     80.018  -105.506
761.093     79.941  -107.960
772.163     79.857  -110.260
783.394     79.769  -112.429
794.789     79.687  -114.525
806.349     79.611  -116.478
818.078     79.553  -118.386
829.977     79.510  -120.251
842.050     79.486  -122.143
854.298     79.476  -124.094
866.724     79.480  -126.109
879.330     79.486  -128.249
892.120     79.491  -130.533
905.097     79.487  -132.929
918.262     79.468  -135.406
931.618     79.430  -137.941
945.169     79.375  -140.469
958.917     79.301  -142.939
972.864     79.215  -145.282
987.015     79.120  -147.489
1001.37     79.028  -149.571
1015.94     78.956  -151.488
1030.71     78.911  -153.279
1045.71     78.902  -155.110
1060.92     78.931  -157.049
1076.35     78.993  -159.179
1092.00     79.074  -161.579
1107.89     79.158  -164.352
1124.00     79.226  -167.455
1140.35     79.264  -170.845
1156.94     79.255  -174.494
1173.77     79.189  -178.209
1190.84     79.065   178.087
1208.16     78.888   174.545
1225.73     78.671   171.272
1243.56     78.432   168.367
1261.65     78.200   165.867
1280.00     78.004   163.718
1298.62     77.869   161.773
1317.51     77.800   159.766
1336.67     77.787   157.485
1356.11     77.807   154.765
1375.84     77.832   151.545
1395.85     77.819   147.832
1416.15     77.752   143.815
1436.75     77.620   139.644
1457.65     77.414   135.470
1478.85     77.152   131.482
1500.36     76.852   127.770
1522.19     76.541   124.279
1544.33     76.241   121.009
1566.79     75.954   117.739
1589.58     75.682   114.347
1612.70     75.403   110.770
1636.16     75.097   106.968
1659.95     74.746   103.028
1684.10     74.353    99.051
1708.60     73.920    95.111
1733.45     73.478    91.112
1758.66     73.025    86.922
1784.24     72.537    82.280
1810.19     71.976    77.041
1836.52     71.281    71.147
1863.24     70.386    64.864
1890.34     69.238    58.622
1917.83     67.850    52.894
1945.73     66.262    48.324
1974.03     64.597    44.782
2002.74     63.010    41.464
2031.87     61.453    36.116
2061.43     59.767    26.545
2091.41     57.698    10.246
2121.83     55.460   -15.861
2152.69     54.397   -49.836
2184.01     55.144   -78.912
2215.77     56.866   -94.743
2248.00     59.020  -100.321
2280.70     61.615  -102.982
2313.87     64.276  -107.511
2347.53     66.599  -114.417
2381.68     68.401  -122.324
2416.32     69.744  -129.766
2451.46     70.795  -135.894
2487.12     71.758  -140.705
2523.30     72.760  -145.100
2560.00     73.767  -150.087
2597.24     74.643  -155.863
2635.01     75.308  -161.830
2673.34     75.785  -167.155
2712.23     76.203  -171.440
2751.68     76.680  -175.149
2791.70     77.213  -179.131
2832.31     77.693   176.315
2873.50     78.043   171.746
2915.30     78.307   167.888
2957.70     78.618   164.763
3000.72     79.046   161.568
3044.37     79.505   157.558
3088.65     79.867   152.851
3133.58     80.102   148.236
3179.16     80.292   144.116
3225.40     80.518   140.096
3272.31     80.739   135.637
3319.91     80.853   130.799
3368.20     80.840   126.274
3417.19     80.784   122.481
3466.89     80.761   119.040
3517.32     80.739   115.478
3568.48     80.651   111.993
3620.39     80.523   109.049
3673.05     80.437   106.573
3726.47     80.403   103.973
3780.67     80.340   101.060
3835.67     80.192    98.242
3891.46     79.983    95.980
3948.06     79.778    94.446
4005.49     79.635    93.470
4063.75     79.562    92.686
4122.86     79.540    92.056
4182.82     79.602    91.722
4243.66     79.817    91.138
4305.39     80.105    89.464
4368.01     80.334    86.910
4431.55     80.499    83.958
4496.01     80.586    80.353
4561.40     80.466    76.512
4627.75     80.189    73.751
4695.06     79.941    71.837
4763.35     79.626    70.059
4832.64     79.218    69.995
4902.93     79.101    71.464
4974.24     79.177    71.813
5046.60     79.193    72.385
5120.00     79.476    73.384
5194.47     79.848    72.239
5270.03     80.019    71.077
5346.68     80.367    70.203
5424.45     80.667    67.339
5503.35     80.716    65.178
5583.40     80.939    63.395
5664.61     81.025    60.300
5747.01     81.009    58.751
5830.60     81.210    56.546
5915.41     81.143    53.683
6001.45     81.160    52.653
6088.74     81.292    50.107
6177.30     81.241    48.271
6267.15     81.435    46.105
6358.31     81.378    42.589
6450.80     81.324    40.365
6544.62     81.180    36.572
6639.82     80.762    34.849
6736.40     80.545    33.362
6834.38     80.095    33.178
6933.79     80.115    34.459
7034.64     80.177    34.161
7136.96     80.487    33.259
7240.77     80.487    29.549
7346.09     80.321    27.399
7452.94     79.925    24.457
7561.35     79.407    25.091
7671.33     79.117    26.365
7782.91     79.188    29.217
7896.12     79.485    29.446
8010.97     79.892    28.718
8127.49     79.965    24.973
8245.71     79.715    22.552
8365.65     79.130    21.374
8487.33     78.810    23.075
8610.78     78.647    24.943
8736.03     78.867    25.080
8863.09     78.814    23.854
8992.01     78.655    22.058
9122.80     78.455    21.584
9255.50     78.225    20.668
9390.12     78.236    20.330
9526.70     78.208    18.626
9665.27     78.170    16.088
9805.86     78.065    13.290
9948.49     77.701    10.305
10093.2     77.249     8.670
10240.0     76.853    10.053
10388.9     76.874    12.027
10540.1     77.250    11.916
10693.4     77.617     9.349
10848.9     77.479     4.389
11006.7     76.860     0.966
11166.8     76.041     1.575
11329.2     75.677     6.261
11494.0     76.032     8.898
11661.2     76.398     7.721
11830.8     76.189     5.683
12002.9     75.787     8.918
12177.5     76.505    13.932
12354.6     77.877    10.707
12534.3     78.179     0.368
12716.6     77.102    -6.192
12901.6     76.055    -2.298
13089.2     76.685     2.458
13279.6     77.517    -1.631
13472.8     77.450    -9.099
13668.8     76.750   -12.684
13867.6     76.294   -13.516
14069.3     76.103   -14.843
14273.9     75.749   -17.882
14481.5     74.866   -19.906
14692.2     74.123   -14.890
14905.9     74.846   -10.819
15122.7     75.505   -17.793
15342.7     74.463   -24.588
15565.8     73.576   -21.310
15792.2     73.802   -21.890
16021.9     72.981   -26.352
16255.0     71.759   -19.312
16491.4     73.346   -12.919
16731.3     74.114   -25.528
16974.7     72.839   -33.765
17221.6     71.877   -34.645
17472.1     71.285   -38.547
17726.2     69.854   -43.144
17984.0     67.983   -42.427
18245.6     66.207   -35.892
18511.0     65.518   -25.410
18780.2     65.212   -20.289
19053.4     64.537   -11.466
19330.5     65.183    -1.080
19611.7     66.060     0.292
19897.0     66.193     2.722
20186.4     67.201     4.763
20480.0     67.459    -1.401
20777.9     66.953    -0.138
21080.1     67.886     0.956
21386.7     68.070    -7.091
21697.8     67.378    -9.999
22013.4     67.557   -13.157
22333.6     66.667   -19.900
22658.4     65.788   -20.301
22988.0     65.138   -23.016
23322.4     64.186   -22.240
23661.6     63.889   -23.167
24005.8     63.092   -25.256
24355.0     62.516   -25.915
24709.2     62.006   -30.848
25068.6     60.561   -36.341
25433.2     58.908   -39.674
25803.2     56.766   -41.385
26178.5     53.540   -41.452
26559.3     50.499   -22.161
26945.6     47.361     1.879
27337.5     52.293    49.401
27735.2     56.084    29.780
28138.6     56.061    25.458
28547.9     55.997    21.784
28963.1     56.265    23.523
29384.4     56.269    18.930
29811.8     55.863    17.156
30245.4     55.122    15.996
30685.3     54.535    17.391
31131.7     54.034    18.054
31584.5     53.493    17.991
32043.9     52.676    16.315
32510.0     51.440    18.658
32982.8     51.090    20.154
33462.6     50.161    19.278
33949.3     49.064    18.492
34443.1     47.605    20.245
34944.1     46.519    24.447
35452.4     45.721    25.583
35968.0     44.427    26.611
36491.2     42.972    30.218
37022.0     42.230    35.085
37560.5     40.798    37.795
38106.8     40.706    43.259
38661.1     40.164    38.561
39223.4     39.014    31.034
39793.9     37.663    25.661
