Freq[Hz]     dBSPL  Phase[Deg]
5.00000    -12.434   157.200
5.07273    -14.928   158.964
5.14651    -16.126   146.874
5.22137    -13.701    96.095
5.29732    -11.276    45.316
5.37437     -8.851    -5.463
5.45254     -6.426   -56.243
5.53185     -4.502   -84.052
5.61231     -3.110   -87.564
5.69394     -1.717   -91.076
5.77676     -0.324   -94.588
5.86079      1.051   -98.121
5.94604      1.440  -102.896
6.03252      1.828  -107.670
6.12027      2.216  -112.445
6.20929      2.605  -117.219
6.29961      2.236  -122.732
6.39124      1.701  -128.408
6.48420      1.165  -134.084
6.57851      0.629  -139.760
6.67420     -2.360  -150.048
6.77128     -5.748  -161.085
6.86977     -9.136  -172.122
6.96969    -11.749   172.568
7.07107     -8.474   124.759
7.17392     -5.198    76.949
7.27827     -1.922    29.140
7.38413      0.603     4.013
7.49154      2.548    -3.590
7.60050      4.492   -11.193
7.71105      6.181   -18.743
7.82321      6.745   -26.063
7.93701      7.310   -33.382
8.05245      7.875   -40.701
8.16958      7.189   -48.787
8.28841      6.456   -56.901
8.40896      5.723   -65.015
8.53128      0.678   -91.252
8.65537     -4.924  -119.827
8.78126    -10.526  -148.402
8.90899     -4.367   -72.553
9.03857      2.562    10.138
9.17004      8.993    82.602
9.30342     11.469    73.661
9.43874     13.945    64.721
9.57603     15.924    56.123
9.71532     17.146    48.051
9.85663     18.367    39.979
10.0000     18.897    32.463
10.1455     19.235    25.101
10.2930     19.325    18.295
10.4427     18.721    13.043
10.5946     18.117     7.791
10.7487     16.599    10.515
10.9051     14.899    14.832
11.0637     14.470    27.505
11.2246     15.387    49.019
11.3879     16.709    66.338
11.5535     19.512    68.366
11.7216     22.297    70.260
11.8921     24.050    64.259
12.0650     25.802    58.257
12.2405     26.853    50.506
12.4186     27.815    42.530
12.5992     28.234    34.298
12.7825     28.534    26.010
12.9684     28.275    18.545
13.1570     27.884    11.271
13.3484     26.788     7.399
13.5426     25.576     4.078
13.7395     24.048    12.819
13.9394     22.834    22.896
14.1421     24.102    39.616
14.3478     25.716    51.584
14.5565     28.073    53.337
14.7683     29.991    51.150
14.9831     31.571    45.920
15.2010     32.514    39.295
15.4221     33.232    32.578
15.6464     33.440    26.505
15.8740     33.374    22.151
16.1049     33.089    19.171
16.3392     32.755    21.629
16.5768     32.760    26.036
16.8179     33.262    32.979
17.0626     34.596    37.365
17.3107     36.081    39.404
17.5625     37.633    38.371
17.8180     38.887    34.686
18.0771     39.934    30.454
18.3401     40.769    25.933
18.6068     41.352    21.954
18.8775     41.835    18.948
19.1521     42.295    16.777
19.4306     42.782    15.398
19.7133     43.388    14.450
20.0000     44.069    13.185
20.2909     44.766    11.479
20.5860     45.433     9.344
20.8855     46.027     6.962
21.1893     46.518     4.807
21.4975     46.970     3.223
21.8102     47.443     2.205
22.1274     47.987     1.542
22.4492     48.623     0.862
22.7758     49.333    -0.238
23.1071     50.064    -1.989
23.4432     50.753    -4.333
23.7841     51.358    -6.980
24.1301     51.885    -9.546
24.4811     52.366   -11.793
24.8372     52.843   -13.656
25.1984     53.355   -15.251
25.5649     53.918   -16.799
25.9368     54.522   -18.513
26.3141     55.144   -20.500
26.6968     55.760   -22.739
27.0851     56.352   -25.125
27.4791     56.920   -27.530
27.8788     57.473   -29.854
28.2843     58.024   -32.075
28.6957     58.587   -34.234
29.1131     59.163   -36.400
29.5365     59.748   -38.634
29.9661     60.331   -40.954
30.4020     60.907   -43.334
30.8442     61.469   -45.724
31.2929     62.026   -48.096
31.7480     62.579   -50.459
32.2098     63.128   -52.841
32.6783     63.670   -55.254
33.1536     64.199   -57.667
33.6359     64.719   -60.044
34.1251     65.238   -62.368
34.6215     65.763   -64.675
35.1250     66.295   -67.026
35.6359     66.832   -69.490
36.1543     67.363   -72.073
36.6802     67.884   -74.747
37.2137     68.390   -77.462
37.7550     68.892   -80.190
38.3041     69.393   -82.956
38.8613     69.895   -85.796
39.4265     70.389   -88.731
40.0000     70.877   -91.737
40.5818     71.358   -94.827
41.1721     71.827   -98.045
41.7710     72.270  -101.370
42.3785     72.674  -104.675
42.9949     73.056  -107.806
43.6203     73.440  -110.761
44.2548     73.845  -113.677
44.8985     74.259  -116.696
45.5515     74.667  -119.820
46.2141     75.065  -123.006
46.8863     75.453  -126.236
47.5683     75.833  -129.504
48.2602     76.206  -132.811
48.9621     76.577  -136.198
49.6743     76.935  -139.688
50.3968     77.273  -143.230
51.1299     77.595  -146.763
51.8736     77.910  -150.296
52.6281     78.217  -153.859
53.3936     78.509  -157.443
54.1702     78.790  -161.039
54.9581     79.054  -164.662
55.7575     79.300  -168.315
56.5685     79.526  -171.995
57.3914     79.729  -175.709
58.2261     79.904  -179.437
59.0730     80.053   176.908
59.9323     80.194   173.366
60.8040     80.339   169.852
61.6884     80.478   166.325
62.5857     80.609   162.861
63.4960     80.737   159.428
64.4196     80.844   155.995
65.3566     80.922   152.677
66.3073     80.983   149.454
67.2717     81.017   146.297
68.2502     81.032   143.307
69.2429     81.053   140.416
70.2501     81.082   137.485
71.2719     81.109   134.525
72.3086     81.129   131.563
73.3603     81.133   128.599
74.4274     81.106   125.766
75.5099     81.059   123.159
76.6083     80.998   120.739
77.7226     80.938   118.554
78.8531     80.905   116.434
80.0000     80.888   114.244
81.1636     80.878   112.011
82.3442     80.873   109.789
83.5419     80.865   107.589
84.7570     80.839   105.501
85.9899     80.808   103.556
87.2406     80.775   101.648
88.5096     80.739    99.678
89.7970     80.693    97.624
91.1031     80.631    95.512
92.4282     80.531    93.502
93.7726     80.410    91.920
95.1366     80.320    90.704
96.5204     80.247    89.562
97.9243     80.184    88.554
99.3486     80.154    87.508
100.794     80.140    86.365
102.260     80.140    85.127
103.747     80.142    83.867
105.256     80.143    82.594
106.787     80.138    81.266
108.340     80.099    79.864
109.916     80.023    78.704
111.515     79.976    77.964
113.137     79.976    77.210
114.783     79.987    76.369
116.452     79.995    75.501
118.146     80.011    74.579
119.865     80.039    73.630
121.608     80.073    72.722
123.377     80.112    71.791
125.171     80.147    70.877
126.992     80.169    69.803
128.839     80.196    68.639
130.713     80.217    67.366
132.615     80.213    66.251
134.543     80.211    65.373
136.500     80.223    64.474
138.486     80.229    63.535
140.500     80.242    62.548
142.544     80.258    61.334
144.617     80.209    60.451
146.721     80.192    60.114
148.855     80.270    59.486
151.020     80.349    58.208
153.217     80.342    56.736
155.445     80.285    55.699
157.706     80.240    54.675
160.000     80.116    54.001
162.327     80.083    54.067
164.688     80.122    53.839
167.084     80.268    53.521
169.514     80.372    50.976
171.980     80.056    49.458
174.481     79.914    50.138
177.019     79.936    50.446
179.594     79.970    50.470
182.206     79.987    50.393
184.856     80.053    50.722
187.545     80.195    50.709
190.273     80.381    50.167
193.041     80.538    48.910
195.849     80.601    47.651
198.697     80.654    46.567
201.587     80.735    45.094
204.520     80.675    43.212
207.494     80.549    42.112
210.512     80.422    42.077
213.574     80.400    41.522
216.681     80.373    41.105
219.833     80.268    40.431
223.030     80.195    40.497
226.274     80.091    40.327
229.565     80.100    41.132
232.905     80.182    41.267
236.292     80.222    41.354
239.729     80.312    41.395
243.216     80.429    40.741
246.754     80.463    40.284
250.343     80.501    39.899
253.984     80.609    39.421
257.678     80.642    38.331
261.426     80.602    37.344
265.229     80.573    35.725
269.087     80.180    35.671
273.001     80.098    37.354
276.972     80.209    37.769
281.000     80.238    37.813
285.088     80.254    38.050
289.234     80.279    38.243
293.441     80.403    38.277
297.709     80.436    37.684
302.040     80.469    36.388
306.433     80.172    36.323
310.890     80.270    37.472
315.412     80.355    36.360
320.000     80.227    35.316
324.655     79.925    35.733
329.377     79.969    37.369
334.168     80.007    37.264
339.028     80.044    38.126
343.959     80.152    38.425
348.962     80.279    38.541
354.038     80.378    38.497
359.188     80.582    37.990
364.412     80.617    36.376
369.713     80.616    36.693
375.090     80.818    36.169
380.546     80.966    34.927
386.081     81.017    33.860
391.697     81.076    32.426
397.394     81.247    31.176
403.175     81.138    28.503
409.039     81.093    27.595
414.989     81.103    26.260
421.025     81.131    24.927
427.149     81.097    23.330
433.362     81.085    22.124
439.665     81.158    20.499
446.060     81.013    18.294
452.548     80.968    16.854
459.131     80.841    15.456
465.809     80.837    14.308
472.584     80.700    12.494
479.458     80.579    11.531
486.432     80.501    10.406
493.507     80.370     9.364
500.686     80.256     8.722
507.968     80.168     8.313
515.357     80.107     8.022
522.853     80.066     7.940
530.458     80.053     8.032
538.174     80.087     8.229
546.002     80.159     8.514
553.943     80.259     8.812
562.001     80.401     9.091
570.175     80.573     9.300
578.469     80.769     9.319
586.883     80.975     9.081
595.419     81.186     8.587
604.080     81.396     7.863
612.866     81.598     6.869
621.780     81.786     5.635
630.824     81.954     4.193
640.000     82.089     2.588
649.309     82.194     0.864
658.753     82.265    -0.971
668.335     82.299    -2.916
678.056     82.293    -4.841
687.919     82.246    -6.763
697.925     82.160    -8.614
708.077     82.038   -10.308
718.376     81.881   -11.808
728.825     81.694   -13.085
739.426     81.485   -14.092
750.181     81.265   -14.777
761.093     81.049   -15.136
772.163     80.852   -15.143
783.394     80.683   -14.876
794.789     80.554   -14.392
806.349     80.476   -13.788
818.078     80.449   -13.217
829.977     80.467   -12.740
842.050     80.519   -12.461
854.298     80.588   -12.421
866.724     80.657   -12.627
879.330     80.718   -13.038
892.120     80.752   -13.581
905.097     80.759   -14.196
918.262     80.736   -14.755
931.618     80.689   -15.145
945.169     80.631   -15.325
958.917     80.578   -15.194
972.864     80.550   -14.805
987.015     80.573   -14.230
1001.37     80.659   -13.565
1015.94     80.809   -13.020
1030.71     81.021   -12.800
1045.71     81.274   -12.999
1060.92     81.541   -13.727
1076.35     81.791   -14.946
1092.00     82.001   -16.587
1107.89     82.156   -18.567
1124.00     82.244   -20.701
1140.35     82.259   -22.830
1156.94     82.210   -24.824
1173.77     82.113   -26.504
1190.84     81.990   -27.765
1208.16     81.874   -28.595
1225.73     81.795   -29.047
1243.56     81.774   -29.301
1261.65     81.824   -29.598
1280.00     81.930   -30.145
1298.62     82.063   -31.104
1317.51     82.190   -32.505
1336.67     82.284   -34.275
1356.11     82.319   -36.224
1375.84     82.289   -38.175
1395.85     82.208   -39.894
1416.15     82.101   -41.208
1436.75     82.009   -42.098
1457.65     81.971   -42.640
1478.85     82.009   -43.098
1500.36     82.119   -43.763
1522.19     82.276   -44.888
1544.33     82.438   -46.544
1566.79     82.562   -48.670
1589.58     82.627   -51.034
1612.70     82.629   -53.365
1636.16     82.587   -55.463
1659.95     82.539   -57.230
1684.10     82.527   -58.730
1708.60     82.572   -60.216
1733.45     82.672   -61.973
1758.66     82.793   -64.229
1784.24     82.890   -66.996
1810.19     82.924   -70.088
1836.52     82.883   -73.266
1863.24     82.778   -76.246
1890.34     82.648   -78.889
1917.83     82.535   -81.251
1945.73     82.460   -83.552
1974.03     82.414   -86.103
2002.74     82.351   -89.004
2031.87     82.231   -92.129
2061.43     82.033   -95.150
2091.41     81.782   -97.714
2121.83     81.542   -99.665
2152.69     81.386  -101.213
2184.01     81.337  -102.915
2215.77     81.340  -105.277
2248.00     81.305  -108.359
2280.70     81.166  -111.787
2313.87     80.913  -114.980
2347.53     80.606  -117.482
2381.68     80.340  -119.310
2416.32     80.166  -120.950
2451.46     80.049  -122.977
2487.12     79.901  -125.457
2523.30     79.671  -127.928
2560.00     79.385  -129.829
2597.24     79.140  -131.027
2635.01     78.994  -132.016
2673.34     78.911  -133.333
2712.23     78.799  -134.903
2751.68     78.642  -136.128
2791.70     78.536  -136.606
2832.31     78.597  -136.858
2873.50     78.792  -137.893
2915.30     78.973  -140.006
2957.70     79.031  -142.447
3000.72     79.026  -144.294
3044.37     79.107  -145.566
3088.65     79.326  -147.222
3133.58     79.564  -149.950
3179.16     79.688  -153.351
3225.40     79.690  -156.559
3272.31     79.663  -159.230
3319.91     79.667  -161.758
3368.20     79.659  -164.439
3417.19     79.603  -167.012
3466.89     79.540  -169.259
3517.32     79.498  -171.447
3568.48     79.420  -173.723
3620.39     79.273  -175.562
3673.05     79.153  -176.566
3726.47     79.152  -177.306
3780.67     79.194  -178.436
3835.67     79.200  -179.512
3891.46     79.252   179.934
3948.06     79.422   179.237
4005.49     79.607   177.960
4063.75     79.769   176.668
4122.86     80.005   175.287
4182.82     80.248   172.973
4243.66     80.337   170.283
4305.39     80.371   168.418
4368.01     80.516   166.473
4431.55     80.576   163.483
4496.01     80.411   161.144
4561.40     80.323   160.318
4627.75     80.387   158.874
4695.06     80.291   156.996
4763.35     80.194   156.590
4832.64     80.330   155.705
4902.93     80.297   153.396
4974.24     80.084   152.624
5046.60     80.111   152.333
5120.00     80.022   150.535
5194.47     79.700   150.622
5270.03     79.711   151.906
5346.68     79.726   151.476
5424.45     79.583   152.489
5503.35     79.763   153.863
5583.40     79.856   153.735
5664.61     79.921   155.253
5747.01     80.305   155.879
5830.60     80.502   155.090
5915.41     80.697   155.345
6001.45     80.974   154.557
6088.74     81.094   153.846
6177.30     81.317   153.319
6267.15     81.427   151.940
6358.31     81.487   151.707
6450.80     81.698   150.938
6544.62     81.777   149.727
6639.82     81.917   148.724
6736.40     81.970   146.428
6834.38     81.795   144.471
6933.79     81.476   142.866
7034.64     80.946   143.151
7136.96     80.567   145.258
7240.77     80.233   148.997
7346.09     80.462   154.055
7452.94     80.924   156.209
7561.35     81.330   157.147
7671.33     81.602   157.445
7782.91     81.905   157.837
7896.12     82.101   157.768
8010.97     82.372   157.982
8127.49     82.531   157.545
8245.71     82.715   157.181
8365.65     82.757   156.087
8487.33     82.700   154.649
8610.78     82.430   153.737
8736.03     82.105   152.472
8863.09     81.433   152.638
8992.01     80.799   155.474
9122.80     80.592   159.870
9255.50     80.601   163.020
9390.12     80.803   165.145
9526.70     80.968   166.315
9665.27     81.235   166.511
9805.86     81.373   165.189
9948.49     81.241   164.432
10093.2     81.149   164.965
10240.0     81.140   166.483
10388.9     81.358   167.602
10540.1     81.484   167.324
10693.4     81.474   167.582
10848.9     81.414   167.970
11006.7     81.392   169.396
11166.8     81.397   170.476
11329.2     81.394   171.899
11494.0     81.416   173.760
11661.2     81.595   176.378
11830.8     81.962   177.786
12002.9     82.378   177.726
12177.5     82.599   175.806
12354.6     82.481   174.004
12534.3     82.106   173.680
12716.6     81.832   175.493
12901.6     81.691   177.881
13089.2     81.757  -179.674
13279.6     81.888  -177.863
13472.8     82.059  -176.913
13668.8     82.170  -176.149
13867.6     82.228  -175.918
14069.3     82.211  -175.476
14273.9     82.153  -174.217
14481.5     82.322  -173.027
14692.2     82.599  -173.605
14905.9     82.562  -176.321
15122.7     82.106  -178.431
15342.7     81.494  -177.865
15565.8     81.063  -176.145
15792.2     80.722  -175.123
16021.9     80.092  -174.334
16255.0     79.025  -168.746
16491.4     79.583  -158.241
16731.3     80.322  -160.308
16974.7     79.969  -161.030
17221.6     79.746  -158.992
17472.1     79.732  -158.164
17726.2     79.453  -158.650
17984.0     78.864  -157.632
18245.6     78.400  -154.469
18511.0     78.233  -151.577
18780.2     78.084  -150.519
19053.4     77.629  -149.810
19330.5     77.032  -147.133
19611.7     76.677  -143.707
19897.0     76.429  -140.561
20186.4     76.270  -139.159
20480.0     75.524  -138.451
20777.9     74.809  -133.051
21080.1     74.803  -127.699
21386.7     74.582  -125.263
21697.8     74.401  -121.622
22013.4     74.474  -119.852
22333.6     74.221  -119.777
22658.4     73.765  -119.100
22988.0     73.267  -118.036
23322.4     72.716  -116.724
23661.6     72.197  -115.059
24005.8     71.763  -114.311
24355.0     71.145  -114.965
24709.2     70.220  -115.552
25068.6     69.205  -113.127
25433.2     68.879  -115.461
25803.2     67.405  -119.275
26178.5     65.835  -120.762
26559.3     64.030  -123.614
26945.6     61.511  -126.851
27337.5     57.067  -110.916
27735.2     59.388  -113.911
28138.6     54.410  -139.247
28547.9     46.477  -170.617
28963.1     44.059   107.886
29384.4     49.276    75.456
29811.8     52.672    68.973
30245.4     54.479    68.766
30685.3     55.638    71.560
31131.7     56.581    75.579
31584.5     57.499    78.709
32043.9     57.961    78.350
32510.0     57.619    79.626
32982.8     57.427    83.616
33462.6     57.030    85.961
33949.3     56.410    89.947
34443.1     55.811    93.997
34944.1     54.948    98.558
35452.4     54.077   103.942
35968.0     53.164   109.825
36491.2     52.096   115.042
37022.0     50.567   122.108
37560.5     49.151   132.923
38106.8     48.205   144.505
38661.1     47.235   152.860
39223.4     45.940   162.076
39793.9     44.424   173.606
