Freq[Hz]     dBSPL  Phase[Deg]
5.00000    -11.186   158.377
5.07273    -13.681   160.187
5.14651    -14.879   148.144
5.22137    -12.457    97.412
5.29732    -10.034    46.681
5.37437     -7.612    -4.050
5.45254     -5.189   -54.782
5.53185     -3.269   -82.543
5.61231     -1.881   -86.007
5.69394     -0.492   -89.471
5.77676      0.897   -92.935
5.86079      2.268   -96.421
5.94604      2.651  -101.150
6.03252      3.034  -105.879
6.12027      3.417  -110.607
6.20929      3.800  -115.336
6.29961      3.425  -120.807
6.39124      2.882  -126.443
6.48420      2.339  -132.079
6.57851      1.797  -137.715
6.67420     -1.200  -147.969
6.77128     -4.596  -158.972
6.86977     -7.992  -169.976
6.96969    -10.613   174.747
7.07107     -7.347   126.961
7.17392     -4.080    79.175
7.27827     -0.814    31.389
7.38413      1.702     6.279
7.49154      3.636    -1.311
7.60050      5.571    -8.902
7.71105      7.250   -16.442
7.82321      7.805   -23.761
7.93701      8.359   -31.080
8.05245      8.914   -38.399
8.16958      8.218   -46.496
8.28841      7.475   -54.623
8.40896      6.733   -62.750
8.53128      1.678   -89.011
8.65537     -3.932  -117.610
8.78126     -9.543  -146.210
8.90899     -3.393   -70.397
9.03857      3.527    12.257
9.17004      9.951    84.683
9.30342     12.420    75.695
9.43874     14.889    66.708
9.57603     16.862    58.060
9.71532     18.079    49.933
9.85663     19.295    41.806
10.0000     19.822    34.231
10.1455     20.158    26.808
10.2930     20.246    19.941
10.4427     19.641    14.626
10.5946     19.037     9.311
10.7487     17.521    11.973
10.9051     15.824    16.227
11.0637     15.399    28.841
11.2246     16.320    50.297
11.3879     17.648    67.559
11.5535     20.458    69.538
11.7216     23.250    71.383
11.8921     25.012    65.343
12.0650     26.774    59.303
12.2405     27.837    51.527
12.4186     28.809    43.527
12.5992     29.242    35.286
12.7825     29.554    26.991
12.9684     29.308    19.536
13.1570     28.932    12.275
13.3484     27.849     8.434
13.5426     26.651     5.148
13.7395     25.137    13.944
13.9394     23.936    24.079
14.1421     25.217    40.875
14.3478     26.843    52.926
14.5565     29.210    54.773
14.7683     31.138    52.692
14.9831     32.727    47.574
15.2010     33.677    41.072
15.4221     34.401    34.483
15.6464     34.611    28.545
15.8740     34.546    24.330
16.1049     34.261    21.491
16.3392     33.923    24.091
16.5768     33.924    28.638
16.8179     34.418    35.720
17.0626     35.743    40.238
17.3107     37.217    42.404
17.5625     38.756    41.492
17.8180     39.996    37.915
18.0771     41.027    33.783
18.3401     41.846    29.352
18.6068     42.412    25.449
18.8775     42.877    22.505
19.1521     43.317    20.385
19.4306     43.786    19.045
19.7133     44.374    18.122
20.0000     45.037    16.870
20.2909     45.718    15.167
20.5860     46.369    13.027
20.8855     46.948    10.630
21.1893     47.426     8.455
21.4975     47.867     6.845
21.8102     48.330     5.799
22.1274     48.865     5.108
22.4492     49.494     4.400
22.7758     50.198     3.274
23.1071     50.924     1.501
23.4432     51.608    -0.859
23.7841     52.211    -3.516
24.1301     52.736    -6.086
24.4811     53.214    -8.330
24.8372     53.689   -10.184
25.1984     54.198   -11.763
25.5649     54.758   -13.291
25.9368     55.360   -14.981
26.3141     55.977   -16.940
26.6968     56.588   -19.150
27.0851     57.176   -21.506
27.4791     57.738   -23.881
27.8788     58.286   -26.176
28.2843     58.831   -28.370
28.6957     59.388   -30.503
29.1131     59.958   -32.644
29.5365     60.536   -34.853
29.9661     61.114   -37.148
30.4020     61.683   -39.504
30.8442     62.240   -41.867
31.2929     62.791   -44.209
31.7480     63.338   -46.541
32.2098     63.881   -48.887
32.6783     64.415   -51.261
33.1536     64.936   -53.633
33.6359     65.449   -55.968
34.1251     65.958   -58.251
34.6215     66.474   -60.518
35.1250     66.995   -62.833
35.6359     67.519   -65.267
36.1543     68.039   -67.827
36.6802     68.547   -70.485
37.2137     69.041   -73.193
37.7550     69.530   -75.920
38.3041     70.020   -78.694
38.8613     70.510   -81.547
39.4265     70.996   -84.498
40.0000     71.475   -87.521
40.5818     71.949   -90.626
41.1721     72.413   -93.856
41.7710     72.851   -97.188
42.3785     73.250  -100.493
42.9949     73.627  -103.617
43.6203     74.008  -106.557
44.2548     74.407  -109.452
44.8985     74.816  -112.444
45.5515     75.218  -115.538
46.2141     75.609  -118.693
46.8863     75.989  -121.892
47.5683     76.359  -125.131
48.2602     76.724  -128.414
48.9621     77.084  -131.781
49.6743     77.431  -135.256
50.3968     77.759  -138.789
51.1299     78.071  -142.318
51.8736     78.378  -145.848
52.6281     78.675  -149.410
53.3936     78.960  -152.991
54.1702     79.233  -156.583
54.9581     79.491  -160.197
55.7575     79.730  -163.839
56.5685     79.948  -167.505
57.3914     80.144  -171.204
58.2261     80.311  -174.918
59.0730     80.453  -178.558
59.9323     80.587   177.913
60.8040     80.725   174.413
61.6884     80.857   170.903
62.5857     80.982   167.460
63.4960     81.103   164.053
64.4196     81.203   160.650
65.3566     81.275   157.368
66.3073     81.328   154.182
67.2717     81.353   151.064
68.2502     81.359   148.112
69.2429     81.371   145.258
70.2501     81.390   142.363
71.2719     81.405   139.436
72.3086     81.414   136.504
73.3603     81.407   133.565
74.4274     81.370   130.751
75.5099     81.313   128.159
76.6083     81.242   125.756
77.7226     81.176   123.594
78.8531     81.134   121.508
80.0000     81.110   119.364
81.1636     81.089   117.179
82.3442     81.073   114.999
83.5419     81.052   112.826
84.7570     81.015   110.750
85.9899     80.975   108.813
87.2406     80.938   106.926
88.5096     80.900   105.003
89.7970     80.847   103.026
91.1031     80.776   101.005
92.4282     80.662    99.080
93.7726     80.525    97.554
95.1366     80.419    96.365
96.5204     80.335    95.238
97.9243     80.266    94.256
99.3486     80.230    93.263
100.794     80.209    92.201
102.260     80.199    91.050
103.747     80.187    89.869
105.256     80.176    88.662
106.787     80.158    87.395
108.340     80.109    86.062
109.916     80.021    84.978
111.515     79.961    84.313
113.137     79.948    83.627
114.783     79.947    82.850
116.452     79.946    82.056
118.146     79.951    81.223
119.865     79.967    80.374
121.608     79.987    79.561
123.377     80.012    78.714
125.171     80.034    77.880
126.992     80.045    76.894
128.839     80.061    75.832
130.713     80.069    74.669
132.615     80.052    73.665
134.543     80.036    72.897
136.500     80.034    72.112
138.486     80.027    71.279
140.500     80.026    70.414
142.544     80.026    69.331
144.617     79.962    68.560
146.721     79.931    68.328
148.855     79.997    67.819
151.020     80.065    66.680
153.217     80.045    65.366
155.445     79.971    64.484
157.706     79.909    63.592
160.000     79.770    63.051
162.327     79.725    63.277
164.688     79.750    63.216
167.084     79.877    63.058
169.514     79.964    60.657
171.980     79.636    59.308
174.481     79.482    60.182
177.019     79.484    60.673
179.594     79.499    60.854
182.206     79.500    60.949
184.856     79.549    61.477
187.545     79.673    61.632
190.273     79.845    61.246
193.041     79.995    60.192
195.849     80.043    59.188
198.697     80.073    58.342
201.587     80.134    57.076
204.520     80.056    55.419
207.494     79.905    54.523
210.512     79.760    54.651
213.574     79.729    54.314
216.681     79.687    54.156
219.833     79.560    53.718
223.030     79.469    54.029
226.274     79.342    54.113
229.565     79.329    55.136
232.905     79.392    55.505
236.292     79.409    55.799
239.729     79.489    56.040
243.216     79.595    55.698
246.754     79.604    55.545
250.343     79.617    55.415
253.984     79.702    55.206
257.678     79.712    54.362
261.426     79.651    53.650
265.229     79.598    52.297
269.087     79.185    52.533
273.001     79.076    54.511
276.972     79.164    55.180
281.000     79.169    55.554
285.088     79.151    56.120
289.234     79.141    56.609
293.441     79.235    56.902
297.709     79.246    56.615
302.040     79.248    55.663
306.433     78.919    55.926
310.890     78.984    57.462
315.412     79.029    56.704
320.000     78.872    56.020
324.655     78.535    56.865
329.377     78.536    58.888
334.168     78.533    59.178
339.028     78.536    60.451
343.959     78.604    61.214
348.962     78.691    61.721
354.038     78.759    62.106
359.188     78.929    62.081
364.412     78.921    60.971
369.713     78.882    61.732
375.090     79.048    61.668
380.546     79.162    60.945
386.081     79.168    60.335
391.697     79.198    59.409
397.394     79.320    58.660
403.175     79.180    56.473
409.039     79.091    56.044
414.989     79.056    55.245
421.025     79.039    54.349
427.149     78.959    53.249
433.362     78.901    52.510
439.665     78.914    51.376
446.060     78.712    49.610
452.548     78.610    48.639
459.131     78.415    47.726
465.809     78.336    47.094
472.584     78.115    45.750
479.458     77.910    45.313
486.432     77.729    44.751
493.507     77.488    44.285
500.686     77.253    44.271
507.968     77.041    44.600
515.357     76.842    45.102
522.853     76.663    45.865
530.458     76.513    47.036
538.174     76.403    48.372
546.002     76.341    49.871
553.943     76.322    51.518
562.001     76.345    53.239
570.175     76.418    54.976
578.469     76.524    56.541
586.883     76.652    57.850
595.419     76.800    58.850
604.080     76.949    59.678
612.866     77.095    60.157
621.780     77.231    60.417
630.824     77.342    60.474
640.000     77.422    60.342
649.309     77.464    60.096
658.753     77.471    59.770
668.335     77.432    59.437
678.056     77.354    59.126
687.919     77.233    58.988
697.925     77.070    59.005
708.077     76.879    59.306
718.376     76.665    59.906
728.825     76.443    60.892
739.426     76.230    62.283
750.181     76.044    64.071
761.093     75.906    66.197
772.163     75.829    68.486
783.394     75.825    70.796
794.789     75.887    72.997
806.349     76.010    74.914
818.078     76.154    76.391
829.977     76.314    77.430
842.050     76.457    78.045
854.298     76.553    78.280
866.724     76.596    78.254
879.330     76.565    78.094
892.120     76.453    77.943
905.097     76.259    78.029
918.262     75.981    78.528
931.618     75.648    79.679
945.169     75.285    81.707
958.917     74.949    84.732
972.864     74.713    88.712
987.015     74.644    93.370
1001.37     74.784    98.202
1015.94     75.127   102.523
1030.71     75.605   105.759
1045.71     76.155   107.791
1060.92     76.700   108.637
1076.35     77.175   108.463
1092.00     77.550   107.546
1107.89     77.808   106.096
1124.00     77.940   104.383
1140.35     77.942   102.653
1156.94     77.823   101.100
1173.77     77.594    99.963
1190.84     77.288    99.426
1208.16     76.937    99.618
1225.73     76.581   100.587
1243.56     76.273   102.243
1261.65     76.044   104.324
1280.00     75.909   106.459
1298.62     75.839   108.324
1317.51     75.803   109.801
1336.67     75.744   110.820
1356.11     75.627   111.586
1375.84     75.432   112.330
1395.85     75.153   113.359
1416.15     74.826   114.925
1436.75     74.492   117.202
1457.65     74.197   120.182
1478.85     73.994   123.603
1500.36     73.896   127.081
1522.19     73.880   130.315
1544.33     73.904   133.155
1566.79     73.922   135.680
1589.58     73.917   138.080
1612.70     73.893   140.539
1636.16     73.878   143.182
1659.95     73.900   145.912
1684.10     73.974   148.563
1708.60     74.083   150.906
1733.45     74.185   152.861
1758.66     74.250   154.545
1784.24     74.266   156.225
1810.19     74.250   158.118
1836.52     74.251   160.406
1863.24     74.315   162.873
1890.34     74.456   165.131
1917.83     74.643   166.801
1945.73     74.813   167.759
1974.03     74.892   168.290
2002.74     74.860   168.793
2031.87     74.748   169.810
2061.43     74.640   171.655
2091.41     74.635   174.045
2121.83     74.791   176.315
2152.69     75.054   177.675
2184.01     75.315   177.866
2215.77     75.474   177.173
2248.00     75.487   176.221
2280.70     75.386   175.627
2313.87     75.258   175.711
2347.53     75.200   176.224
2381.68     75.254   176.589
2416.32     75.377   176.249
2451.46     75.487   175.054
2487.12     75.525   173.298
2523.30     75.496   171.357
2560.00     75.438   169.445
2597.24     75.391   167.447
2635.01     75.357   165.134
2673.34     75.311   162.433
2712.23     75.234   159.517
2751.68     75.149   156.644
2791.70     75.103   153.861
2832.31     75.135   150.842
2873.50     75.225   147.269
2915.30     75.313   143.114
2957.70     75.359   138.682
3000.72     75.383   134.398
3044.37     75.436   130.345
3088.65     75.545   126.254
3133.58     75.671   121.933
3179.16     75.759   117.518
3225.40     75.802   113.460
3272.31     75.852   110.009
3319.91     75.962   106.919
3368.20     76.109   103.805
3417.19     76.233   100.719
3466.89     76.331    98.037
3517.32     76.468    95.828
3568.48     76.681    93.585
3620.39     76.899    90.951
3673.05     77.052    88.188
3726.47     77.173    85.792
3780.67     77.345    83.527
3835.67     77.544    80.754
3891.46     77.664    77.506
3948.06     77.693    74.457
4005.49     77.737    71.717
4063.75     77.810    68.493
4122.86     77.785    64.706
4182.82     77.627    61.280
4243.66     77.494    58.550
4305.39     77.452    55.438
4368.01     77.324    51.523
4431.55     77.044    48.030
4496.01     76.808    45.442
4561.40     76.672    42.428
4627.75     76.430    38.948
4695.06     76.117    36.446
4763.35     75.976    34.448
4832.64     75.884    31.406
4902.93     75.648    28.467
4974.24     75.486    26.368
5046.60     75.411    23.278
5120.00     75.073    19.828
5194.47     74.647    18.510
5270.03     74.467    17.788
5346.68     74.235    16.433
5424.45     73.992    16.619
5503.35     74.056    16.674
5583.40     74.042    15.200
5664.61     73.942    14.713
5747.01     74.044    13.767
5830.60     73.994    11.632
5915.41     73.895    10.413
6001.45     73.919     8.208
6088.74     73.704     5.065
6177.30     73.375     2.758
6267.15     72.971     0.410
6358.31     72.462    -0.509
6450.80     72.194    -0.754
6544.62     71.939    -1.857
6639.82     71.757    -2.423
6736.40     71.694    -4.249
6834.38     71.476    -6.566
6933.79     71.240    -8.538
7034.64     70.970   -10.625
7136.96     70.630   -12.564
7240.77     70.214   -13.648
7346.09     69.858   -14.180
7452.94     69.375   -14.246
7561.35     68.929   -12.241
7671.33     68.726    -9.085
7782.91     68.824    -6.424
7896.12     68.913    -4.494
8010.97     69.189    -3.005
8127.49     69.370    -3.039
8245.71     69.529    -3.995
8365.65     69.389    -6.139
8487.33     69.102    -8.923
8610.78     68.321   -11.454
8736.03     67.521   -12.916
8863.09     66.329   -13.423
8992.01     65.205   -12.136
9122.80     63.968    -8.134
9255.50     63.156    -2.585
9390.12     62.922     3.499
9526.70     62.741     7.574
9665.27     63.232    11.565
9805.86     63.688    10.662
9948.49     63.857     8.752
10093.2     64.036     7.616
10240.0     64.194     5.669
10388.9     64.278     2.422
10540.1     64.032    -1.144
10693.4     63.355    -4.123
10848.9     62.257    -4.797
11006.7     61.112    -0.009
11166.8     60.127     8.216
11329.2     59.931    19.755
11494.0     60.506    30.254
11661.2     61.541    38.407
11830.8     62.716    42.353
12002.9     63.956    43.420
12177.5     64.987    42.231
12354.6     65.760    39.637
12534.3     66.267    36.357
12716.6     66.790    33.973
12901.6     67.370    30.383
13089.2     67.810    25.152
13279.6     67.858    18.852
13472.8     67.510    12.239
13668.8     66.513     8.539
13867.6     65.324    11.882
14069.3     65.115    20.763
14273.9     66.049    27.862
14481.5     67.556    29.080
14692.2     68.987    23.734
14905.9     69.738    14.537
15122.7     69.877     5.183
15342.7     69.593    -2.544
15565.8     69.225    -8.944
15792.2     68.773   -15.443
16021.9     68.042   -20.669
16255.0     67.317   -22.220
16491.4     67.653   -24.585
16731.3     67.610   -35.379
16974.7     66.746   -46.061
17221.6     65.516   -56.781
17472.1     63.721   -68.046
17726.2     61.092   -78.541
17984.0     57.414   -85.645
18245.6     52.451   -86.436
18511.0     45.267   -65.813
18780.2     42.972    -2.523
19053.4     47.265    36.101
19330.5     51.545    49.348
19611.7     55.047    48.005
19897.0     56.783    39.888
20186.4     57.770    34.376
20480.0     58.231    27.780
20777.9     58.482    24.115
21080.1     59.127    19.294
21386.7     59.204    10.150
21697.8     58.288     3.429
22013.4     58.242     3.401
22333.6     58.222    -5.559
22658.4     57.282   -14.552
22988.0     55.723   -19.791
23322.4     54.550   -21.141
23661.6     53.338   -25.453
24005.8     51.483   -26.234
24355.0     50.131   -21.732
24709.2     50.077   -18.621
25068.6     51.030   -24.384
25433.2     49.643   -56.368
25803.2     44.853   -76.082
26178.5     39.850  -100.575
26559.3     39.105  -171.587
26945.6     44.488   103.643
27337.5     45.490    49.382
27735.2     38.820    48.960
28138.6     42.689    60.377
28547.9     43.270    44.725
28963.1     42.279    37.222
29384.4     41.346    30.810
29811.8     39.479    20.324
30245.4     35.732    10.019
30685.3     28.779     8.315
31131.7     18.582    16.615
31584.5     28.373   151.496
32043.9     32.658   141.893
32510.0     35.276   141.285
32982.8     36.327   126.586
33462.6     35.931   122.967
33949.3     34.689   116.212
34443.1     31.211   114.966
34944.1     29.466   147.240
35452.4     32.059   163.231
35968.0     33.850   162.909
36491.2     33.838   157.798
37022.0     33.463   152.579
37560.5     31.811   140.662
38106.8     27.739   150.335
38661.1     23.428   164.005
39223.4     21.094   -55.920
39793.9     26.961  -108.204
