Freq[Hz]     dBSPL  Phase[Deg]
5.00000     -9.083  -179.705
5.07273    -11.580  -177.580
5.14651    -12.780   170.697
5.22137    -10.359   120.304
5.29732     -7.938    69.911
5.37437     -5.517    19.518
5.45254     -3.096   -30.876
5.53185     -1.178   -58.288
5.61231      0.209   -61.391
5.69394      1.596   -64.494
5.77676      2.982   -67.597
5.86079      4.352   -70.720
5.94604      4.733   -75.065
6.03252      5.113   -79.410
6.12027      5.494   -83.754
6.20929      5.874   -88.099
6.29961      5.497   -93.167
6.39124      4.952   -98.395
6.48420      4.406  -103.624
6.57851      3.861  -108.852
6.67420      0.861  -118.679
6.77128     -2.538  -129.253
6.86977     -5.937  -139.826
6.96969     -8.562  -154.671
7.07107     -5.298   157.997
7.17392     -2.035   110.664
7.27827      1.229    63.332
7.38413      3.741    38.688
7.49154      5.672    31.574
7.60050      7.603    24.460
7.71105      9.278    17.400
7.82321      9.829    10.581
7.93701     10.379     3.762
8.05245     10.930    -3.058
8.16958     10.230   -10.633
8.28841      9.483   -18.237
8.40896      8.735   -25.841
8.53128      3.677   -51.558
8.65537     -1.939   -79.611
8.78126     -7.554  -107.664
8.90899     -1.409   -31.282
9.03857      5.506    51.942
9.17004     11.925   124.942
9.30342     14.388   116.548
9.43874     16.852   108.154
9.57603     18.820   100.111
9.71532     20.030    92.602
9.85663     21.240    85.094
10.0000     21.761    78.155
10.1455     22.090    71.375
10.2930     22.171    65.157
10.4427     21.559    60.509
10.5946     20.947    55.860
10.7487     19.423    59.208
10.9051     17.717    64.153
11.0637     17.283    77.469
11.2246     18.196    99.639
11.3879     19.515   117.621
11.5535     22.315   120.337
11.7216     25.097   122.919
11.8921     26.848   117.640
12.0650     28.599   112.360
12.2405     29.650   105.364
12.4186     30.610    98.146
12.5992     31.029    90.705
12.7825     31.328    83.215
12.9684     31.067    76.580
13.1570     30.677    70.144
13.3484     29.578    67.145
13.5426     28.365    64.704
13.7395     26.833    74.362
13.9394     25.616    85.364
14.1421     26.879   103.041
14.3478     28.487   115.980
14.5565     30.836   118.728
14.7683     32.744   117.557
14.9831     34.312   113.357
15.2010     35.242   107.787
15.4221     35.945   102.135
15.6464     36.133    97.150
15.8740     36.047    93.896
16.1049     35.740    92.025
16.3392     35.378    95.610
16.5768     35.355   101.151
16.8179     35.827   109.235
17.0626     37.128   114.773
17.3107     38.578   117.968
17.5625     40.093   118.095
17.8180     41.308   115.575
18.0771     42.314   112.510
18.3401     43.107   109.159
18.6068     43.648   106.352
18.8775     44.086   104.519
19.1521     44.500   103.524
19.4306     44.942   103.322
19.7133     45.502   103.555
20.0000     46.137   103.474
20.2909     46.788   102.957
20.5860     47.409   102.016
20.8855     47.958   100.834
21.1893     48.405    99.889
21.4975     48.812    99.525
21.8102     49.242    99.738
22.1274     49.743   100.318
22.4492     50.337   100.895
22.7758     51.005   101.067
23.1071     51.695   100.603
23.4432     52.341    99.565
23.7841     52.906    98.242
24.1301     53.394    97.020
24.4811     53.833    96.135
24.8372     54.271    95.653
25.1984     54.741    95.461
25.5649     55.263    95.334
25.9368     55.827    95.063
26.3141     56.408    94.540
26.6968     56.982    93.786
27.0851     57.534    92.907
27.4791     58.059    92.033
27.8788     58.570    91.263
28.2843     59.078    90.621
28.6957     59.598    90.067
29.1131     60.130    89.531
29.5365     60.669    88.954
29.9661     61.207    88.318
30.4020     61.736    87.648
30.8442     62.248    86.998
31.2929     62.752    86.391
31.7480     63.251    85.815
32.2098     63.744    85.242
32.6783     64.225    84.660
33.1536     64.692    84.094
33.6359     65.148    83.576
34.1251     65.599    83.123
34.6215     66.056    82.696
35.1250     66.518    82.232
35.6359     66.982    81.660
36.1543     67.442    80.976
36.6802     67.891    80.210
37.2137     68.327    79.412
37.7550     68.759    78.615
38.3041     69.191    77.797
38.8613     69.626    76.926
39.4265     70.054    75.988
40.0000     70.478    75.007
40.5818     70.894    73.975
41.1721     71.300    72.850
41.7710     71.678    71.651
42.3785     72.016    70.509
42.9949     72.330    69.572
43.6203     72.645    68.841
44.2548     72.978    68.174
44.8985     73.319    67.426
45.5515     73.651    66.590
46.2141     73.973    65.705
46.8863     74.283    64.789
47.5683     74.585    63.847
48.2602     74.882    62.879
48.9621     75.178    61.851
49.6743     75.464    60.744
50.3968     75.732    59.616
51.1299     75.987    58.535
51.8736     76.236    57.497
52.6281     76.475    56.474
53.3936     76.700    55.471
54.1702     76.909    54.491
54.9581     77.102    53.512
55.7575     77.275    52.517
56.5685     77.428    51.506
57.3914     77.561    50.469
58.2261     77.672    49.436
59.0730     77.764    48.515
59.9323     77.857    47.768
60.8040     77.958    47.137
61.6884     78.056    46.605
62.5857     78.143    46.243
63.4960     78.218    46.014
64.4196     78.262    45.853
65.3566     78.264    45.841
66.3073     78.239    45.919
67.2717     78.181    46.034
68.2502     78.106    46.283
69.2429     78.044    46.617
70.2501     77.999    46.935
71.2719     77.958    47.282
72.3086     77.919    47.715
73.3603     77.862    48.238
74.4274     77.772    48.971
75.5099     77.656    49.988
76.6083     77.523    51.231
77.7226     77.390    52.743
78.8531     77.284    54.358
80.0000     77.195    55.956
81.1636     77.112    57.561
82.3442     77.031    59.222
83.5419     76.946    60.934
84.7570     76.846    62.780
85.9899     76.747    64.805
87.2406     76.651    66.933
88.5096     76.559    69.096
89.7970     76.454    71.285
91.1031     76.329    73.503
92.4282     76.158    75.873
93.7726     75.962    78.688
95.1366     75.799    81.885
96.5204     75.662    85.204
97.9243     75.540    88.740
99.3486     75.451    92.341
100.794     75.376    95.936
102.260     75.313    99.498
103.747     75.249   103.087
105.256     75.186   106.717
106.787     75.118   110.362
108.340     75.018   114.004
109.916     74.879   117.949
111.515     74.773   122.367
113.137     74.718   126.843
114.783     74.679   131.333
116.452     74.636   135.908
118.146     74.596   140.517
119.865     74.566   145.146
121.608     74.546   149.856
123.377     74.540   154.626
125.171     74.536   159.548
126.992     74.516   164.456
128.839     74.492   169.372
130.713     74.457   174.221
132.615     74.399   179.259
134.543     74.351  -175.268
136.500     74.321  -169.641
138.486     74.291  -164.620
140.500     74.263  -159.046
142.544     74.235  -153.123
144.617     74.151  -147.472
146.721     74.102  -141.256
148.855     74.146  -134.711
151.020     74.189  -128.821
153.217     74.148  -123.148
155.445     74.061  -117.044
157.706     73.988  -110.906
160.000     73.833  -103.825
162.327     73.770   -96.039
164.688     73.791   -89.147
167.084     73.921   -81.711
169.514     74.004   -75.882
171.980     73.666   -69.048
174.481     73.507   -60.626
177.019     73.514   -52.582
179.594     73.534   -44.252
182.206     73.546   -35.418
184.856     73.605   -26.135
187.545     73.738   -17.819
190.273     73.923    -9.478
193.041     74.087    -1.786
195.849     74.143     5.926
198.697     74.190    14.290
201.587     74.286    22.262
204.520     74.239    29.939
207.494     74.109    38.344
210.512     73.991    48.304
213.574     73.988    57.809
216.681     73.969    66.854
219.833     73.878    76.144
223.030     73.832    86.798
226.274     73.748    97.234
229.565     73.775   108.615
232.905     73.871   119.288
236.292     73.931   129.791
239.729     74.065   140.891
243.216     74.207   151.411
246.754     74.252   161.969
250.343     74.319   173.124
253.984     74.450  -175.745
257.678     74.493  -165.318
261.426     74.470  -154.289
265.229     74.455  -143.889
269.087     74.075  -131.985
273.001     74.008  -118.294
276.972     74.108  -105.872
281.000     74.122   -93.423
285.088     74.129   -80.156
289.234     74.122   -66.938
293.441     74.212   -53.946
297.709     74.196   -41.540
302.040     74.175   -29.898
306.433     73.811   -16.315
310.890     73.806    -1.031
315.412     73.802    12.037
320.000     73.550    25.335
324.655     73.114    40.020
329.377     73.020    56.044
334.168     72.898    71.613
339.028     72.749    88.268
343.959     72.677   104.363
348.962     72.621   120.533
354.038     72.524   136.600
359.188     72.538   153.032
364.412     72.354   169.117
369.713     72.150  -172.812
375.090     72.162  -155.414
380.546     72.132  -137.850
386.081     71.994  -120.027
391.697     71.898  -101.766
397.394     71.903   -82.684
403.175     71.699   -65.463
409.039     71.548   -45.730
414.989     71.485   -25.732
421.025     71.480    -5.731
427.149     71.428    14.121
433.362     71.444    34.194
439.665     71.575    55.248
446.060     71.511    75.629
452.548     71.579    96.543
459.131     71.597   118.104
465.809     71.763   140.371
472.584     71.822   161.623
479.458     71.915  -176.299
486.432     72.057  -154.062
493.507     72.150  -131.459
500.686     72.265  -108.052
507.968     72.397   -84.723
515.357     72.527   -61.482
522.853     72.657   -37.685
530.458     72.783   -13.285
538.174     72.908    11.092
546.002     73.036    35.475
553.943     73.148    60.499
562.001     73.257    86.120
570.175     73.349   112.384
578.469     73.440   139.146
586.883     73.504   165.960
595.419     73.553  -167.283
604.080     73.585  -139.934
612.866     73.592  -111.989
621.780     73.579   -83.455
630.824     73.540   -54.304
640.000     73.480   -25.108
649.309     73.402     4.161
658.753     73.294    34.168
668.335     73.161    65.425
678.056     73.001    96.865
687.919     72.819   129.102
697.925     72.612   162.173
708.077     72.389  -164.533
718.376     72.151  -130.277
728.825     71.907   -95.053
739.426     71.663   -58.809
750.181     71.432   -21.509
761.093     71.235    16.826
772.163     71.085    55.552
783.394     71.014    95.220
794.789     71.016   136.425
806.349     71.123   177.605
818.078     71.327  -140.680
829.977     71.615   -98.598
842.050     71.980   -56.345
854.298     72.398   -13.976
866.724     72.838    27.862
879.330     73.300    70.345
892.120     73.761   112.901
905.097     74.201   155.614
918.262     74.611  -161.523
931.618     74.985  -118.465
945.169     75.316   -75.128
958.917     75.596   -31.496
972.864     75.825    12.493
987.015     75.995    56.863
1001.37     76.105   102.206
1015.94     76.153   148.009
1030.71     76.131  -166.252
1045.71     76.041  -119.445
1060.92     75.869   -71.533
1076.35     75.622   -23.622
1092.00     75.293    24.912
1107.89     74.863    74.675
1124.00     74.336   125.144
1140.35     73.701   176.395
1156.94     72.937  -130.889
1173.77     72.040   -77.124
1190.84     70.987   -22.196
1208.16     69.788    34.260
1225.73     68.387    93.246
1243.56     66.844   155.493
1261.65     65.225  -138.667
1280.00     63.784   -68.386
1298.62     62.866     5.816
1317.51     62.766    81.850
1336.67     63.355   156.496
1356.11     64.209  -132.190
1375.84     65.018   -62.953
1395.85     65.668     5.078
1416.15     66.095    72.278
1436.75     66.282   139.110
1457.65     66.250  -153.380
1478.85     65.987   -84.821
1500.36     65.493   -15.575
1522.19     64.753    55.358
1544.33     63.770   128.384
1566.79     62.522  -155.761
1589.58     61.055   -76.281
1612.70     59.541     7.478
1636.16     58.292    97.029
1659.95     57.825  -169.367
1684.10     58.279   -75.687
1708.60     59.227    15.335
1733.45     60.200   102.632
1758.66     61.033  -171.084
1784.24     61.635   -85.322
1810.19     61.996     0.277
1836.52     62.130    87.337
1863.24     62.073   175.662
1890.34     61.857   -94.151
1917.83     61.524    -2.197
1945.73     61.148    92.027
1974.03     60.762  -170.761
2002.74     60.481   -71.776
2031.87     60.343    28.903
2061.43     60.359   130.633
2091.41     60.507  -126.502
2121.83     60.714   -22.602
2152.69     60.930    80.903
2184.01     61.083  -174.595
2215.77     61.149   -68.841
2248.00     61.108    37.659
2280.70     60.950   145.348
2313.87     60.664  -105.169
2347.53     60.265     6.662
2381.68     59.761   120.320
2416.32     59.202  -123.200
2451.46     58.623    -3.754
2487.12     58.126   118.710
2523.30     57.809  -116.062
2560.00     57.693    11.245
2597.24     57.800   139.347
2635.01     58.052   -91.767
2673.34     58.347    37.798
2712.23     58.593   168.102
2751.68     58.740   -59.975
2791.70     58.763    73.500
2832.31     58.607  -150.867
2873.50     58.306   -12.830
2915.30     57.935   128.412
2957.70     57.607   -86.118
3000.72     57.464    62.762
3044.37     57.624  -146.003
3088.65     58.059     6.830
3133.58     58.635   159.868
3179.16     59.149   -46.161
3225.40     59.469   109.290
3272.31     59.538   -93.595
3319.91     59.379    66.800
3368.20     59.055  -128.851
3417.19     58.703    39.359
3466.89     58.485  -148.400
3517.32     58.527    27.839
3568.48     58.787  -154.585
3620.39     59.183    24.222
3673.05     59.605  -155.152
3726.47     59.957    26.747
3780.67     60.142  -150.013
3835.67     60.147    34.728
3891.46     59.928  -137.947
3948.06     59.451    51.841
4005.49     58.727  -115.759
4063.75     57.800    80.835
4122.86     56.723   -79.433
4182.82     55.486   123.126
4243.66     54.097   -30.343
4305.39     52.457   178.845
4368.01     50.457    31.298
4431.55     47.916  -112.221
4496.01     44.306   110.623
4561.40     39.247   -10.525
4627.75     36.280   -92.196
4695.06     40.294   176.447
4763.35     43.737    59.888
4832.64     45.870   -58.455
4902.93     47.605  -172.834
4974.24     49.412    75.761
5046.60     51.283   -36.171
5120.00     52.807  -147.829
5194.47     53.745   101.865
5270.03     54.053    -5.504
5346.68     53.775  -108.107
5424.45     53.092   155.808
5503.35     52.188    65.735
5583.40     51.201   -18.649
5664.61     50.264   -96.641
5747.01     49.545  -170.268
5830.60     49.183   117.552
5915.41     48.444    45.055
6001.45     46.430   -26.907
6088.74     41.909   -88.176
6177.30     36.960  -105.805
6267.15     39.896  -119.123
6358.31     42.451  -161.391
6450.80     43.288   159.138
6544.62     43.800   125.954
6639.82     44.270    96.852
6736.40     44.505    72.446
6834.38     44.869    51.536
6933.79     44.862    32.038
7034.64     43.848    17.161
7136.96     42.136    13.959
7240.77     41.477    23.332
7346.09     42.233    32.754
7452.94     42.980    35.742
7561.35     42.653    37.949
7671.33     40.635    45.171
7782.91     36.875    72.271
7896.12     35.887   129.918
8010.97     38.648   174.289
8127.49     39.885  -145.962
8245.71     39.468   -92.617
8365.65     41.196   -20.482
8487.33     45.262    40.516
8610.78     47.210    88.899
8736.03     45.838   143.985
8863.09     42.605  -131.146
8992.01     43.135   -30.205
9122.80     43.588    55.166
9255.50     40.521   143.132
9390.12     32.942   -83.114
9526.70     37.403    89.852
9665.27     41.243  -161.469
9805.86     40.003   -37.268
9948.49     40.078   115.628
10093.2     42.330  -103.682
10240.0     41.643    36.035
10388.9     40.556  -157.018
10540.1     41.910     4.377
10693.4     40.216   157.551
10848.9     35.538   -15.265
11006.7     36.157  -172.414
11166.8     35.847     5.582
11329.2     30.895  -160.749
11494.0     28.277    87.496
11661.2     31.079   -50.525
11830.8     27.043  -176.598
12002.9     31.013   102.458
12177.5     33.915   -22.854
12354.6     33.090  -130.284
12534.3     32.592   147.843
12716.6     33.186    64.613
12901.6     30.788    10.476
13089.2     36.410   -42.042
13279.6     37.092  -125.554
13472.8     33.996  -170.480
13668.8     36.693   146.525
13867.6     33.489    73.938
14069.3     27.560    80.680
14273.9     33.219    30.622
14481.5     31.803   -53.947
14692.2     26.722   -65.861
14905.9     32.477   -40.413
15122.7     32.873   -45.450
15342.7     27.837    11.750
15565.8     28.002    52.947
15792.2     22.994   -16.676
16021.9     29.286   -33.257
16255.0     28.578    69.169
16491.4     33.088   151.400
16731.3     30.179   -92.073
16974.7     34.089    17.236
17221.6     29.228   160.847
17472.1     32.056   -40.778
17726.2     29.316   146.344
17984.0     31.919   -36.410
18245.6     28.451   161.096
18511.0     31.882    11.838
18780.2     28.562  -165.744
19053.4     21.880   130.266
19330.5     26.244    44.822
19611.7     22.437   -46.670
19897.0     21.488   -79.349
20186.4     23.634  -114.714
20480.0     24.822  -178.884
20777.9     20.999   156.109
21080.1     20.377   107.687
21386.7     21.050  -125.667
21697.8     25.579   -31.517
22013.4     26.231     4.251
22333.6     27.737    38.564
22658.4     30.309    92.909
22988.0     31.648   170.516
23322.4     31.304   -94.530
23661.6     29.510    36.272
24005.8     28.894  -173.752
24355.0     29.943   -13.429
24709.2     33.664   142.698
25068.6     41.035   -75.720
25433.2     36.857    25.690
25803.2     28.284  -152.909
26178.5     22.394    89.062
26559.3     24.166     2.278
26945.6     21.354   -81.296
27337.5     20.813   142.987
27735.2     22.763  -144.266
28138.6     20.874   -16.215
28547.9     22.266   130.711
28963.1     26.646   124.326
29384.4     25.902   145.834
29811.8     24.053   -47.915
30245.4     22.408     5.535
30685.3     16.780    50.211
31131.7     15.977   125.218
31584.5     17.977    -2.988
32043.9     23.064    85.265
32510.0     18.151  -167.699
32982.8     17.787  -143.823
33462.6     17.198    97.248
33949.3     17.580   100.690
34443.1     16.055    13.991
34944.1     14.941  -179.444
35452.4     13.390    23.320
35968.0     14.712   -12.406
36491.2     13.542    47.155
37022.0     14.445    49.130
37560.5     14.291   -15.441
38106.8     15.135  -134.195
38661.1     15.097   163.926
39223.4     13.443   158.013
39793.9     14.410  -140.580
