Freq[Hz]     dBSPL  Phase[Deg]
5.00000    -12.208   157.422
5.07273    -14.704   159.204
5.14651    -15.902   147.133
5.22137    -13.480    96.371
5.29732    -11.057    45.610
5.37437     -8.634    -5.152
5.45254     -6.211   -55.913
5.53185     -4.291   -83.706
5.61231     -2.901   -87.202
5.69394     -1.512   -90.698
5.77676     -0.122   -94.194
5.86079      1.250   -97.711
5.94604      1.634  -102.473
6.03252      2.018  -107.235
6.12027      2.402  -111.997
6.20929      2.786  -116.759
6.29961      2.413  -122.263
6.39124      1.873  -127.932
6.48420      1.332  -133.601
6.57851      0.792  -139.270
6.67420     -2.203  -149.556
6.77128     -5.597  -160.593
6.86977     -8.990  -171.629
6.96969    -11.609   173.062
7.07107     -8.340   125.245
7.17392     -5.070    77.428
7.27827     -1.801    29.611
7.38413      0.718     4.472
7.49154      2.656    -3.148
7.60050      4.594   -10.767
7.71105      6.277   -18.336
7.82321      6.835   -25.681
7.93701      7.393   -33.026
8.05245      7.951   -40.372
8.16958      7.259   -48.493
8.28841      6.520   -56.644
8.40896      5.780   -64.794
8.53128      0.730   -91.076
8.65537     -4.877  -119.697
8.78126    -10.484  -148.317
8.90899     -4.331   -72.523
9.03857      2.594    10.113
9.17004      9.021    82.521
9.30342     11.493    73.517
9.43874     13.966    64.513
9.57603     15.942    55.850
9.71532     17.162    47.709
9.85663     18.381    39.567
10.0000     18.912    31.977
10.1455     19.250    24.541
10.2930     19.340    17.660
10.4427     18.738    12.330
10.5946     18.135     7.001
10.7487     16.621     9.648
10.9051     14.926    13.886
11.0637     14.502    26.484
11.2246     15.425    47.922
11.3879     16.754    65.167
11.5535     19.566    67.124
11.7216     22.359    68.948
11.8921     24.122    62.884
12.0650     25.885    56.820
12.2405     26.948    49.015
12.4186     27.921    40.987
12.5992     28.354    32.713
12.7825     28.668    24.385
12.9684     28.423    16.892
13.1570     28.048     9.594
13.3484     26.967     5.711
13.5426     25.770     2.383
13.7395     24.258    11.132
13.9394     23.060    21.221
14.1421     24.345    37.967
14.3478     25.975    49.969
14.5565     28.346    51.766
14.7683     30.278    49.634
14.9831     31.872    44.466
15.2010     32.828    37.915
15.4221     33.558    31.277
15.6464     33.776    25.293
15.8740     33.718    21.035
16.1049     33.442    18.155
16.3392     33.112    20.720
16.5768     33.122    25.236
16.8179     33.626    32.290
17.0626     34.961    36.789
17.3107     36.445    38.941
17.5625     37.994    38.019
17.8180     39.243    34.442
18.0771     40.284    30.315
18.3401     41.111    25.894
18.6068     41.685    22.009
18.8775     42.157    19.088
19.1521     42.604    16.996
19.4306     43.077    15.688
19.7133     43.668    14.799
20.0000     44.334    13.583
20.2909     45.015    11.917
20.5860     45.665     9.811
20.8855     46.242     7.446
21.1893     46.716     5.296
21.4975     47.151     3.704
21.8102     47.607     2.667
22.1274     48.133     1.973
22.4492     48.754     1.250
22.7758     49.448     0.095
23.1071     50.164    -1.722
23.4432     50.839    -4.142
23.7841     51.432    -6.876
24.1301     51.950    -9.538
24.4811     52.423   -11.887
24.8372     52.894   -13.859
25.1984     53.402   -15.564
25.5649     53.963   -17.224
25.9368     54.568   -19.048
26.3141     55.193   -21.141
26.6968     55.814   -23.477
27.0851     56.415   -25.951
27.4791     56.993   -28.429
27.8788     57.556   -30.811
28.2843     58.120   -33.074
28.6957     58.695   -35.254
29.1131     59.284   -37.422
29.5365     59.879   -39.639
29.9661     60.474   -41.924
30.4020     61.057   -44.254
30.8442     61.625   -46.580
31.2929     62.184   -48.879
31.7480     62.737   -51.165
32.2098     63.281   -53.471
32.6783     63.815   -55.814
33.1536     64.334   -58.169
33.6359     64.841   -60.502
34.1251     65.346   -62.803
34.6215     65.855   -65.109
35.1250     66.371   -67.479
35.6359     66.893   -69.985
36.1543     67.411   -72.627
36.6802     67.920   -75.374
37.2137     68.418   -78.172
37.7550     68.913   -80.985
38.3041     69.411   -83.836
38.8613     69.910   -86.755
39.4265     70.404   -89.759
40.0000     70.893   -92.825
40.5818     71.375   -95.965
41.1721     71.844   -99.224
41.7710     72.288  -102.585
42.3785     72.691  -105.923
42.9949     73.071  -109.086
43.6203     73.454  -112.075
44.2548     73.857  -115.026
44.8985     74.271  -118.080
45.5515     74.678  -121.239
46.2141     75.075  -124.457
46.8863     75.462  -127.713
47.5683     75.841  -131.002
48.2602     76.212  -134.326
48.9621     76.579  -137.729
49.6743     76.931  -141.239
50.3968     77.264  -144.810
51.1299     77.579  -148.384
51.8736     77.889  -151.969
52.6281     78.191  -155.594
53.3936     78.482  -159.244
54.1702     78.763  -162.899
54.9581     79.030  -166.565
55.7575     79.278  -170.239
56.5685     79.505  -173.916
57.3914     79.706  -177.611
58.2261     79.874   178.684
59.0730     80.011   175.040
59.9323     80.135   171.480
60.8040     80.263   167.907
61.6884     80.385   164.276
62.5857     80.504   160.672
63.4960     80.628   157.082
64.4196     80.737   153.499
65.3566     80.826   150.065
66.3073     80.898   146.770
67.2717     80.942   143.592
68.2502     80.963   140.614
69.2429     80.984   137.748
70.2501     81.007   134.830
71.2719     81.021   131.850
72.3086     81.032   128.832
73.3603     81.028   125.783
74.4274     80.999   122.857
75.5099     80.955   120.173
76.6083     80.897   117.709
77.7226     80.840   115.516
78.8531     80.804   113.409
80.0000     80.779   111.231
81.1636     80.755   108.979
82.3442     80.734   106.693
83.5419     80.713   104.385
84.7570     80.681   102.164
85.9899     80.651   100.094
87.2406     80.624    98.098
88.5096     80.595    96.089
89.7970     80.550    94.033
91.1031     80.482    91.923
92.4282     80.371    89.886
93.7726     80.238    88.232
95.1366     80.140    86.905
96.5204     80.066    85.648
97.9243     80.009    84.555
99.3486     79.984    83.470
100.794     79.971    82.324
102.260     79.966    81.085
103.747     79.958    79.797
105.256     79.949    78.462
106.787     79.937    77.055
108.340     79.896    75.581
109.916     79.817    74.368
111.515     79.767    73.583
113.137     79.760    72.777
114.783     79.766    71.866
116.452     79.770    70.925
118.146     79.785    69.942
119.865     79.811    68.949
121.608     79.841    68.002
123.377     79.875    67.025
125.171     79.905    66.056
126.992     79.924    64.934
128.839     79.945    63.735
130.713     79.958    62.426
132.615     79.945    61.250
134.543     79.935    60.280
136.500     79.944    59.288
138.486     79.951    58.290
140.500     79.962    57.266
142.544     79.972    56.010
144.617     79.917    55.068
146.721     79.896    54.661
148.855     79.972    53.967
151.020     80.048    52.635
153.217     80.038    51.108
155.445     79.978    50.015
157.706     79.931    48.942
160.000     79.804    48.222
162.327     79.767    48.236
164.688     79.803    47.953
167.084     79.947    47.577
169.514     80.049    44.978
171.980     79.731    43.412
174.481     79.587    44.050
177.019     79.605    44.312
179.594     79.636    44.274
182.206     79.651    44.122
184.856     79.716    44.380
187.545     79.861    44.305
190.273     80.050    43.710
193.041     80.211    42.434
195.849     80.270    41.158
198.697     80.319    39.991
201.587     80.408    38.438
204.520     80.354    36.571
207.494     80.215    35.467
210.512     80.078    35.277
213.574     80.069    34.577
216.681     80.054    34.139
219.833     79.949    33.431
223.030     79.881    33.406
226.274     79.784    33.203
229.565     79.784    33.956
232.905     79.862    33.891
236.292     79.924    33.789
239.729     80.039    33.801
243.216     80.157    33.116
246.754     80.198    32.525
250.343     80.250    32.036
253.984     80.365    31.463
257.678     80.407    30.225
261.426     80.381    29.110
265.229     80.360    27.338
269.087     79.983    27.117
273.001     79.914    28.689
276.972     80.027    28.955
281.000     80.062    28.783
285.088     80.089    28.795
289.234     80.120    28.784
293.441     80.252    28.535
297.709     80.301    27.748
302.040     80.329    26.262
306.433     80.035    25.889
310.890     80.138    26.801
315.412     80.223    25.440
320.000     80.091    24.192
324.655     79.778    24.362
329.377     79.812    25.763
334.168     79.835    25.401
339.028     79.861    26.017
343.959     79.951    26.093
348.962     80.068    25.943
354.038     80.162    25.742
359.188     80.349    25.110
364.412     80.364    23.343
369.713     80.345    23.520
375.090     80.528    22.828
380.546     80.667    21.477
386.081     80.701    20.276
391.697     80.757    18.752
397.394     80.913    17.409
403.175     80.808    14.664
409.039     80.748    13.694
414.989     80.760    12.266
421.025     80.790    10.843
427.149     80.761     9.200
433.362     80.756     7.911
439.665     80.838     6.202
446.060     80.705     3.914
452.548     80.676     2.355
459.131     80.566     0.825
465.809     80.586    -0.453
472.584     80.470    -2.445
479.458     80.378    -3.622
486.432     80.331    -4.933
493.507     80.224    -6.242
500.686     80.136    -7.187
507.968     80.077    -7.941
515.357     80.036    -8.577
522.853     80.011    -9.093
530.458     80.016    -9.390
538.174     80.055    -9.627
546.002     80.127    -9.765
553.943     80.222    -9.855
562.001     80.350    -9.967
570.175     80.511   -10.105
578.469     80.688   -10.422
586.883     80.879   -10.941
595.419     81.077   -11.665
604.080     81.276   -12.581
612.866     81.471   -13.772
621.780     81.659   -15.146
630.824     81.829   -16.745
640.000     81.979   -18.503
649.309     82.099   -20.361
658.753     82.197   -22.353
668.335     82.262   -24.472
678.056     82.295   -26.621
687.919     82.294   -28.782
697.925     82.262   -30.914
708.077     82.197   -32.956
718.376     82.101   -34.878
728.825     81.978   -36.677
739.426     81.837   -38.287
750.181     81.677   -39.672
761.093     81.512   -40.840
772.163     81.354   -41.751
783.394     81.206   -42.443
794.789     81.080   -42.964
806.349     80.980   -43.334
818.078     80.911   -43.677
829.977     80.877   -44.018
842.050     80.866   -44.415
854.298     80.871   -44.948
866.724     80.885   -45.603
879.330     80.894   -46.401
892.120     80.895   -47.299
905.097     80.879   -48.234
918.262     80.841   -49.128
931.618     80.791   -49.927
945.169     80.733   -50.516
958.917     80.678   -50.905
972.864     80.649   -51.051
987.015     80.660   -51.008
1001.37     80.721   -50.898
1015.94     80.851   -50.844
1030.71     81.035   -51.024
1045.71     81.268   -51.596
1060.92     81.526   -52.640
1076.35     81.781   -54.175
1092.00     82.007   -56.159
1107.89     82.188   -58.548
1124.00     82.311   -61.205
1140.35     82.365   -63.963
1156.94     82.351   -66.696
1173.77     82.272   -69.231
1190.84     82.148   -71.428
1208.16     81.999   -73.205
1225.73     81.856   -74.541
1243.56     81.749   -75.500
1261.65     81.704   -76.226
1280.00     81.724   -76.949
1298.62     81.804   -77.889
1317.51     81.915   -79.201
1336.67     82.029   -80.915
1356.11     82.113   -82.970
1375.84     82.155   -85.218
1395.85     82.140   -87.454
1416.15     82.082   -89.491
1436.75     82.005   -91.208
1457.65     81.941   -92.593
1478.85     81.919   -93.702
1500.36     81.957   -94.762
1522.19     82.052   -96.007
1544.33     82.181   -97.578
1566.79     82.309   -99.578
1589.58     82.408  -101.876
1612.70     82.462  -104.304
1636.16     82.474  -106.663
1659.95     82.463  -108.830
1684.10     82.462  -110.766
1708.60     82.493  -112.600
1733.45     82.566  -114.518
1758.66     82.665  -116.733
1784.24     82.755  -119.335
1810.19     82.802  -122.208
1836.52     82.789  -125.197
1863.24     82.717  -128.013
1890.34     82.612  -130.489
1917.83     82.518  -132.631
1945.73     82.462  -134.573
1974.03     82.444  -136.642
2002.74     82.436  -138.991
2031.87     82.389  -141.580
2061.43     82.275  -144.150
2091.41     82.102  -146.354
2121.83     81.921  -147.956
2152.69     81.804  -149.030
2184.01     81.786  -150.005
2215.77     81.844  -151.392
2248.00     81.906  -153.363
2280.70     81.901  -155.688
2313.87     81.815  -157.916
2347.53     81.686  -159.625
2381.68     81.588  -160.787
2416.32     81.572  -161.746
2451.46     81.618  -162.946
2487.12     81.673  -164.524
2523.30     81.695  -166.206
2560.00     81.700  -167.712
2597.24     81.738  -168.990
2635.01     81.834  -170.362
2673.34     81.959  -172.127
2712.23     82.060  -174.249
2751.68     82.119  -176.455
2791.70     82.170  -178.546
2832.31     82.250   179.285
2873.50     82.336   176.695
2915.30     82.360   173.664
2957.70     82.278   170.600
3000.72     82.122   168.006
3044.37     81.977   165.936
3088.65     81.878   163.910
3133.58     81.770   161.558
3179.16     81.578   159.076
3225.40     81.297   157.019
3272.31     80.998   155.688
3319.91     80.735   154.841
3368.20     80.506   154.201
3417.19     80.290   153.798
3466.89     80.101   153.657
3517.32     79.942   153.697
3568.48     79.796   154.005
3620.39     79.710   154.820
3673.05     79.763   155.760
3726.47     79.921   156.053
3780.67     80.063   155.684
3835.67     80.180   155.282
3891.46     80.348   154.757
3948.06     80.532   153.528
4005.49     80.630   151.856
4063.75     80.681   150.272
4122.86     80.730   148.266
4182.82     80.620   145.661
4243.66     80.278   143.958
4305.39     79.975   144.007
4368.01     79.831   143.955
4431.55     79.542   143.550
4496.01     79.173   145.269
4561.40     79.177   148.092
4627.75     79.310   149.156
4695.06     79.287   150.717
4763.35     79.570   153.270
4832.64     80.027   153.234
4902.93     80.161   152.520
4974.24     80.389   153.317
5046.60     80.794   152.061
5120.00     80.786   149.866
5194.47     80.726   150.185
5270.03     80.919   149.619
5346.68     80.788   148.435
5424.45     80.711   149.917
5503.35     80.918   150.099
5583.40     80.825   150.279
5664.61     81.016   152.459
5747.01     81.349   151.981
5830.60     81.385   152.329
5915.41     81.773   153.012
6001.45     81.958   151.282
6088.74     82.003   151.704
6177.30     82.302   151.076
6267.15     82.302   150.364
6358.31     82.552   150.807
6450.80     82.726   149.225
6544.62     82.824   149.042
6639.82     83.061   147.212
6736.40     82.985   145.495
6834.38     82.986   143.739
6933.79     82.595   141.922
7034.64     82.278   142.550
7136.96     81.845   142.880
7240.77     81.456   146.620
7346.09     81.420   150.876
7452.94     81.813   155.389
7561.35     82.321   156.778
7671.33     82.831   158.011
7782.91     83.265   156.839
7896.12     83.536   156.403
8010.97     83.778   154.805
8127.49     83.875   153.522
8245.71     83.761   151.740
8365.65     83.565   151.237
8487.33     83.182   150.607
8610.78     82.816   151.931
8736.03     82.501   153.676
8863.09     82.348   155.283
8992.01     82.163   157.310
9122.80     82.153   158.282
9255.50     82.089   158.975
9390.12     81.881   158.598
9526.70     81.582   159.691
9665.27     81.443   161.828
9805.86     81.412   162.515
9948.49     81.343   164.575
10093.2     81.455   166.490
10240.0     81.695   167.587
10388.9     81.895   168.169
10540.1     81.881   168.226
10693.4     81.876   169.219
10848.9     81.831   170.866
11006.7     81.884   173.241
11166.8     82.080   174.995
11329.2     82.304   176.505
11494.0     82.433   177.562
11661.2     82.571   179.348
11830.8     82.869  -178.964
12002.9     83.271  -178.218
12177.5     83.496  -179.076
12354.6     83.505  -179.183
12534.3     83.510  -178.064
12716.6     83.732  -176.380
12901.6     84.051  -175.471
13089.2     84.490  -175.819
13279.6     84.787  -177.765
13472.8     84.875   179.406
13668.8     84.734   177.053
13867.6     84.414   175.084
14069.3     84.016   174.414
14273.9     83.639   174.784
14481.5     83.392   174.590
14692.2     82.961   173.604
14905.9     82.110   173.685
15122.7     81.274   177.937
15342.7     81.073  -176.342
15565.8     81.083  -173.932
15792.2     80.751  -173.099
16021.9     79.949  -170.202
16255.0     79.041  -160.525
16491.4     80.218  -147.467
16731.3     81.550  -149.533
16974.7     81.681  -151.564
17221.6     81.708  -151.594
17472.1     81.744  -151.961
17726.2     81.629  -152.406
17984.0     81.397  -152.269
18245.6     81.197  -151.619
18511.0     81.052  -151.604
18780.2     80.743  -152.502
19053.4     80.144  -152.802
19330.5     79.487  -150.892
19611.7     79.052  -148.755
19897.0     78.580  -146.762
20186.4     78.166  -145.304
20480.0     77.248  -144.114
20777.9     76.463  -137.673
21080.1     76.471  -132.388
21386.7     76.158  -130.064
21697.8     75.842  -126.646
22013.4     75.557  -124.310
22333.6     74.974  -121.347
22658.4     74.581  -116.124
22988.0     74.506  -112.246
23322.4     74.333  -109.818
23661.6     74.065  -107.140
24005.8     73.904  -104.810
24355.0     73.669  -103.561
24709.2     73.359  -102.581
25068.6     72.866  -101.593
25433.2     72.753  -101.071
25803.2     72.191  -103.743
26178.5     71.292  -105.527
26559.3     70.271  -106.612
26945.6     68.785  -108.069
27337.5     66.468   -94.533
27735.2     68.773   -92.830
28138.6     67.174  -102.146
28547.9     65.478  -102.769
28963.1     63.722  -102.620
29384.4     61.845  -101.151
29811.8     59.847   -99.775
30245.4     57.513  -100.140
30685.3     54.586  -101.411
31131.7     50.706  -107.893
31584.5     44.843  -127.906
32043.9     40.758   177.047
32510.0     44.872   132.938
32982.8     48.140   119.220
33462.6     50.090   119.856
33949.3     51.898   121.965
34443.1     52.995   122.224
34944.1     53.697   122.763
35452.4     53.798   123.633
35968.0     53.693   126.566
36491.2     53.378   129.628
37022.0     52.805   133.957
37560.5     52.146   137.616
38106.8     50.745   148.599
38661.1     50.913   158.100
39223.4     50.529   165.044
39793.9     50.204   171.869
