Freq[Hz]     dBSPL  Phase[Deg]
5.00000     -8.387   -16.131
5.07273     -8.045   -16.233
5.14651     -7.676   -16.342
5.22137     -7.266   -16.461
5.29732     -6.841   -16.584
5.37437     -6.397   -16.712
5.45254     -5.954   -16.842
5.53185     -5.510   -16.974
5.61231     -5.066   -17.108
5.69394     -4.622   -17.244
5.77676     -4.179   -17.382
5.86079     -3.735   -17.522
5.94604     -3.291   -17.664
6.03252     -2.848   -17.808
6.12027     -2.404   -17.954
6.20929     -1.960   -18.102
6.29961     -1.517   -18.253
6.39124     -1.073   -18.406
6.48420     -0.629   -18.561
6.57851     -0.185   -18.718
6.67420      0.258   -18.877
6.77128      0.702   -19.039
6.86977      1.146   -19.203
6.96969      1.590   -19.370
7.07107      2.034   -19.539
7.17392      2.477   -19.710
7.27827      2.921   -19.884
7.38413      3.365   -20.061
7.49154      3.809   -20.240
7.60050      4.253   -20.422
7.71105      4.697   -20.606
7.82321      5.141   -20.793
7.93701      5.584   -20.983
8.05245      6.028   -21.175
8.16958      6.472   -21.371
8.28841      6.916   -21.569
8.40896      7.360   -21.770
8.53128      7.804   -21.975
8.65537      8.248   -22.182
8.78126      8.692   -22.392
8.90899      9.136   -22.605
9.03857      9.580   -22.822
9.17004     10.024   -23.041
9.30342     10.468   -23.264
9.43874     10.912   -23.490
9.57603     11.356   -23.720
9.71532     11.801   -23.952
9.85663     12.245   -24.189
10.0000     12.689   -24.428
10.1455     13.133   -24.672
10.2930     13.577   -24.918
10.4427     14.021   -25.169
10.5946     14.466   -25.423
10.7487     14.910   -25.681
10.9051     15.354   -25.943
11.0637     15.799   -26.208
11.2246     16.243   -26.478
11.3879     16.687   -26.751
11.5535     17.132   -27.029
11.7216     17.576   -27.310
11.8921     18.021   -27.596
12.0650     18.465   -27.886
12.2405     18.910   -28.181
12.4186     19.354   -28.479
12.5992     19.799   -28.782
12.7825     20.244   -29.090
12.9684     20.688   -29.402
13.1570     21.133   -29.719
13.3484     21.578   -30.041
13.5426     22.023   -30.367
13.7395     22.468   -30.699
13.9394     22.912   -31.035
14.1421     23.357   -31.376
14.3478     23.802   -31.722
14.5565     24.248   -32.074
14.7683     24.693   -32.431
14.9831     25.138   -32.793
15.2010     25.583   -33.161
15.4221     26.028   -33.534
15.6464     26.474   -33.913
15.8740     26.919   -34.297
16.1049     27.365   -34.688
16.3392     27.810   -35.084
16.5768     28.256   -35.486
16.8179     28.701   -35.894
17.0626     29.147   -36.309
17.3107     29.593   -36.730
17.5625     30.039   -37.157
17.8180     30.485   -37.591
18.0771     30.931   -38.032
18.3401     31.377   -38.479
18.6068     31.824   -38.934
18.8775     32.270   -39.395
19.1521     32.717   -39.863
19.4306     33.163   -40.339
19.7133     33.617   -40.809
20.0000     34.088   -41.257
20.2909     34.594   -41.704
20.5860     35.139   -42.216
20.8855     35.697   -42.983
21.1893     36.239   -44.076
21.4975     36.732   -45.315
21.8102     37.147   -46.462
22.1274     37.501   -47.297
22.4492     37.848   -47.679
22.7758     38.227   -47.664
23.1071     38.660   -47.533
23.4432     39.150   -47.562
23.7841     39.668   -47.863
24.1301     40.177   -48.454
24.4811     40.666   -49.271
24.8372     41.131   -50.234
25.1984     41.585   -51.248
25.5649     42.041   -52.211
25.9368     42.510   -53.120
26.3141     42.998   -53.991
26.6968     43.495   -54.898
27.0851     43.989   -55.910
27.4791     44.471   -57.000
27.8788     44.933   -58.144
28.2843     45.378   -59.316
28.6957     45.818   -60.444
29.1131     46.262   -61.521
29.5365     46.721   -62.581
29.9661     47.197   -63.641
30.4020     47.684   -64.757
30.8442     48.171   -65.953
31.2929     48.646   -67.213
31.7480     49.111   -68.526
32.2098     49.570   -69.860
32.6783     50.026   -71.170
33.1536     50.498   -72.482
33.6359     50.990   -73.857
34.1251     51.495   -75.224
34.6215     51.991   -76.755
35.1250     52.459   -78.409
35.6359     52.900   -79.907
36.1543     53.324   -81.393
36.6802     53.753   -82.924
37.2137     54.205   -84.382
37.7550     54.683   -85.904
38.3041     55.175   -87.546
38.8613     55.659   -89.253
39.4265     56.129   -90.914
40.0000     56.589   -92.537
40.5818     57.049   -94.184
41.1721     57.513   -95.889
41.7710     57.982   -97.654
42.3785     58.451   -99.483
42.9949     58.921  -101.373
43.6203     59.394  -103.266
44.2548     59.866  -105.198
44.8985     60.338  -107.176
45.5515     60.812  -109.169
46.2141     61.284  -111.231
46.8863     61.750  -113.354
47.5683     62.206  -115.498
48.2602     62.657  -117.687
48.9621     63.108  -119.932
49.6743     63.558  -122.221
50.3968     64.010  -124.586
51.1299     64.465  -127.016
51.8736     64.915  -129.487
52.6281     65.358  -131.974
53.3936     65.794  -134.453
54.1702     66.227  -136.987
54.9581     66.655  -139.634
55.7575     67.076  -142.358
56.5685     67.488  -145.185
57.3914     67.890  -148.079
58.2261     68.279  -150.964
59.0730     68.661  -153.859
59.9323     69.037  -156.785
60.8040     69.408  -159.738
61.6884     69.773  -162.751
62.5857     70.130  -165.796
63.4960     70.473  -168.908
64.4196     70.800  -172.097
65.3566     71.108  -175.326
66.3073     71.400  -178.595
67.2717     71.678   178.149
68.2502     71.945   174.942
69.2429     72.205   171.762
70.2501     72.458   168.608
71.2719     72.702   165.429
72.3086     72.932   162.205
73.3603     73.146   158.966
74.4274     73.346   155.736
75.5099     73.534   152.541
76.6083     73.711   149.386
77.7226     73.880   146.257
78.8531     74.037   143.144
80.0000     74.174   140.044
81.1636     74.295   136.966
82.3442     74.404   133.964
83.5419     74.506   131.056
84.7570     74.607   128.192
85.9899     74.710   125.368
87.2406     74.807   122.580
88.5096     74.896   119.784
89.7970     74.975   117.000
91.1031     75.044   114.271
92.4282     75.102   111.579
93.7726     75.157   108.929
95.1366     75.204   106.331
96.5204     75.244   103.774
97.9243     75.279   101.268
99.3486     75.307    98.809
100.794     75.329    96.389
102.260     75.349    94.029
103.747     75.363    91.704
105.256     75.373    89.425
106.787     75.382    87.206
108.340     75.388    85.026
109.916     75.391    82.893
111.515     75.395    80.800
113.137     75.392    78.754
114.783     75.384    76.741
116.452     75.375    74.785
118.146     75.367    72.899
119.865     75.359    71.063
121.608     75.358    69.246
123.377     75.358    67.470
125.171     75.356    65.691
126.992     75.356    63.934
128.839     75.356    62.208
130.713     75.357    60.522
132.615     75.367    58.838
134.543     75.377    57.152
136.500     75.389    55.430
138.486     75.396    53.667
140.500     75.391    51.893
142.544     75.381    50.143
144.617     75.362    48.437
146.721     75.340    46.809
148.855     75.325    45.236
151.020     75.316    43.686
153.217     75.310    42.118
155.445     75.304    40.537
157.706     75.298    38.931
160.000     75.284    37.310
162.327     75.263    35.740
164.688     75.241    34.210
167.084     75.219    32.706
169.514     75.197    31.215
171.980     75.174    29.726
174.481     75.146    28.247
177.019     75.111    26.818
179.594     75.072    25.523
182.206     75.045    24.332
184.856     75.039    23.188
187.545     75.055    22.008
190.273     75.082    20.703
193.041     75.109    19.283
195.849     75.127    17.786
198.697     75.133    16.277
201.587     75.140    14.791
204.520     75.147    13.238
207.494     75.144    11.628
210.512     75.130     9.991
213.574     75.096     8.350
216.681     75.047     6.773
219.833     74.985     5.258
223.030     74.911     3.909
226.274     74.847     2.755
229.565     74.804     1.689
232.905     74.778     0.688
236.292     74.782    -0.276
239.729     74.817    -1.416
243.216     74.852    -2.790
246.754     74.871    -4.334
250.343     74.865    -5.952
253.984     74.835    -7.565
257.678     74.783    -9.066
261.426     74.727   -10.442
265.229     74.682   -11.678
269.087     74.657   -12.941
273.001     74.636   -14.256
276.972     74.614   -15.620
281.000     74.583   -16.998
285.088     74.545   -18.290
289.234     74.512   -19.535
293.441     74.488   -20.757
297.709     74.474   -21.993
302.040     74.465   -23.381
306.433     74.436   -24.797
310.890     74.393   -26.134
315.412     74.358   -27.413
320.000     74.334   -28.605
324.655     74.326   -29.870
329.377     74.329   -31.213
334.168     74.334   -32.646
339.028     74.331   -34.184
343.959     74.326   -35.803
348.962     74.305   -37.493
354.038     74.261   -39.267
359.188     74.187   -40.957
364.412     74.095   -42.470
369.713     74.012   -43.767
375.090     73.954   -44.932
380.546     73.920   -46.196
386.081     73.898   -47.533
391.697     73.864   -48.957
397.394     73.839   -50.453
403.175     73.818   -51.992
409.039     73.777   -53.738
414.989     73.715   -55.603
421.025     73.590   -57.381
427.149     73.430   -58.814
433.362     73.290   -59.750
439.665     73.206   -60.421
446.060     73.205   -61.121
452.548     73.262   -62.205
459.131     73.288   -63.750
465.809     73.306   -65.289
472.584     73.330   -67.204
479.458     73.254   -69.217
486.432     73.163   -70.791
493.507     73.095   -72.358
500.686     73.003   -73.830
507.968     72.969   -74.941
515.357     72.972   -76.502
522.853     72.955   -78.265
530.458     72.902   -79.878
538.174     72.856   -81.565
546.002     72.793   -83.121
553.943     72.772   -84.102
562.001     72.868   -85.562
570.175     72.974   -87.830
578.469     73.017   -90.680
586.883     72.940   -94.220
595.419     72.741   -97.277
604.080     72.463   -99.596
612.866     72.128  -100.915
621.780     71.969  -101.169
630.824     71.943  -101.786
640.000     71.929  -102.936
649.309     71.970  -104.433
658.753     71.948  -106.392
668.335     71.878  -108.044
678.056     71.850  -109.737
687.919     71.872  -111.398
697.925     71.930  -113.455
708.077     72.013  -116.103
718.376     72.015  -119.182
728.825     71.923  -121.985
739.426     71.836  -124.459
750.181     71.736  -127.144
761.093     71.573  -129.680
772.163     71.452  -131.932
783.394     71.282  -134.552
794.789     71.029  -136.730
806.349     70.802  -137.934
818.078     70.639  -139.046
829.977     70.514  -139.718
842.050     70.567  -140.254
854.298     70.695  -141.837
866.724     70.785  -143.840
879.330     70.926  -145.977
892.120     71.017  -149.264
905.097     70.976  -152.676
918.262     70.858  -155.946
931.618     70.601  -158.836
945.169     70.376  -161.168
958.917     70.171  -163.006
972.864     69.983  -164.456
987.015     69.946  -166.113
1001.37     69.886  -168.066
1015.94     69.822  -169.908
1030.71     69.822  -172.301
1045.71     69.757  -174.787
1060.92     69.769  -177.393
1076.35     69.731   179.272
1092.00     69.602   175.740
1107.89     69.400   172.631
1124.00     69.217   169.796
1140.35     69.029   165.981
1156.94     68.561   163.807
1173.77     68.279   163.004
1190.84     68.091   161.621
1208.16     67.863   161.758
1225.73     68.002   161.342
1243.56     68.090   159.013
1261.65     68.110   157.701
1280.00     68.325   155.325
1298.62     68.412   151.695
1317.51     68.478   148.682
1336.67     68.609   144.738
1356.11     68.551   140.079
1375.84     68.405   136.591
1395.85     68.209   132.934
1416.15     67.895   129.932
1436.75     67.718   127.964
1457.65     67.584   125.114
1478.85     67.520   122.169
1500.36     67.393   118.969
1522.19     67.181   115.448
1544.33     66.990   113.542
1566.79     66.798   111.948
1589.58     66.762   110.508
1612.70     66.901   109.519
1636.16     67.075   106.910
1659.95     67.289   103.121
1684.10     67.340    98.950
1708.60     67.397    94.912
1733.45     67.378    90.793
1758.66     67.291    86.572
1784.24     67.156    83.120
1810.19     66.925    79.571
1836.52     66.644    77.008
1863.24     66.345    75.097
1890.34     66.288    73.298
1917.83     66.517    71.439
1945.73     66.903    68.500
1974.03     67.417    64.827
2002.74     67.868    60.356
2031.87     68.225    54.975
2061.43     68.418    49.107
2091.41     68.434    42.658
2121.83     68.291    36.995
2152.69     68.124    32.619
2184.01     68.055    29.217
2215.77     68.027    25.573
2248.00     68.092    21.143
2280.70     68.101    15.791
2313.87     68.029     9.728
2347.53     67.991     3.613
2381.68     67.810    -2.054
2416.32     67.540    -7.502
2451.46     67.307   -11.930
2487.12     67.027   -15.513
2523.30     66.869   -19.423
2560.00     66.880   -23.450
2597.24     66.918   -27.393
2635.01     66.967   -32.068
2673.34     67.074   -36.909
2712.23     67.063   -41.685
2751.68     66.904   -46.309
2791.70     66.608   -50.915
2832.31     66.127   -55.236
2873.50     65.549   -59.158
2915.30     64.983   -63.249
2957.70     64.452   -67.334
3000.72     64.049   -70.737
3044.37     63.795   -74.066
3088.65     63.541   -77.639
3133.58     63.240   -80.734
3179.16     63.082   -83.422
3225.40     63.043   -87.041
3272.31     63.001   -90.918
3319.91     62.965   -94.590
3368.20     62.908   -98.058
3417.19     62.880  -101.168
3466.89     62.843  -104.661
3517.32     62.717  -108.731
3568.48     62.434  -112.446
3620.39     62.027  -115.909
3673.05     61.574  -118.138
3726.47     61.263  -119.091
3780.67     61.134  -119.863
3835.67     61.229  -120.577
3891.46     61.494  -122.406
3948.06     61.780  -125.488
4005.49     62.109  -129.567
4063.75     62.399  -134.780
4122.86     62.658  -141.023
4182.82     62.778  -148.578
4243.66     62.621  -156.358
4305.39     62.251  -163.469
4368.01     61.702  -169.521
4431.55     61.056  -173.927
4496.01     60.491  -176.868
4561.40     60.064  -179.005
4627.75     59.815   178.661
4695.06     59.687   175.565
4763.35     59.591   171.336
4832.64     59.490   166.205
4902.93     59.357   161.359
4974.24     59.258   157.184
5046.60     59.231   153.710
5120.00     59.314   150.740
5194.47     59.499   147.137
5270.03     59.698   142.763
5346.68     59.849   137.881
5424.45     59.953   132.700
5503.35     60.006   127.446
5583.40     60.022   122.168
5664.61     59.995   116.890
5747.01     59.943   111.379
5830.60     59.831   105.611
5915.41     59.643    99.916
6001.45     59.398    94.204
6088.74     59.094    88.634
6177.30     58.735    83.288
6267.15     58.337    78.003
6358.31     57.977    72.597
6450.80     57.700    66.727
6544.62     57.478    60.332
6639.82     57.291    53.515
6736.40     57.093    46.375
6834.38     56.843    39.367
6933.79     56.561    32.460
7034.64     56.258    25.152
7136.96     55.898    17.647
7240.77     55.439    10.252
7346.09     54.878     3.464
7452.94     54.324    -1.458
7561.35     53.952    -4.075
7671.33     53.869    -5.309
7782.91     54.093    -6.260
7896.12     54.569    -7.704
8010.97     55.077   -10.729
8127.49     55.421   -15.643
8245.71     55.594   -21.523
8365.65     55.604   -28.615
8487.33     55.439   -37.479
8610.78     55.138   -47.698
8736.03     54.727   -59.456
8863.09     54.182   -72.271
8992.01     53.498   -84.768
9122.80     52.727   -96.317
9255.50     51.976  -106.268
9390.12     51.388  -114.169
9526.70     51.027  -119.990
9665.27     50.934  -123.868
9805.86     51.154  -126.857
9948.49     51.514  -130.326
10093.2     51.804  -135.295
10240.0     51.954  -142.765
10388.9     51.811  -152.889
10540.1     51.197  -163.764
10693.4     50.089  -172.709
10848.9     48.419  -176.624
11006.7     46.288  -172.686
11166.8     44.269  -163.361
11329.2     43.148  -154.090
11494.0     43.305  -148.339
11661.2     44.367  -150.220
11830.8     45.474  -160.803
12002.9     46.083  -175.688
12177.5     46.018   168.779
12354.6     45.329   154.767
12534.3     44.119   143.308
12716.6     42.539   134.209
12901.6     40.626   127.909
13089.2     38.460   124.588
13279.6     36.292   124.203
13472.8     34.383   126.647
13668.8     32.900   130.464
13867.6     32.088   133.499
14069.3     31.800   135.576
14273.9     31.931   139.081
14481.5     32.646   144.577
14692.2     33.812   151.133
14905.9     35.241   158.319
15122.7     36.714   162.179
15342.7     38.023   159.856
15565.8     39.099   152.798
15792.2     39.911   142.246
16021.9     40.383   130.871
16255.0     40.539   120.957
16491.4     40.555   112.765
16731.3     40.582   106.708
16974.7     40.741   101.512
17221.6     41.134    96.111
17472.1     41.683    90.327
17726.2     42.193    83.342
17984.0     42.495    75.642
18245.6     42.588    68.038
18511.0     42.565    60.667
18780.2     42.380    53.295
19053.4     42.008    44.958
19330.5     41.552    35.571
19611.7     40.896    25.707
19897.0     39.973    15.721
20186.4     38.995     7.774
20480.0     37.898     4.055
20777.9     36.602     5.490
21080.1     35.318    11.354
21386.7     33.972    16.696
21697.8     32.513    17.854
22013.4     31.157    13.277
22333.6     30.141     0.637
22658.4     29.835   -18.094
22988.0     30.278   -42.465
23322.4     31.107   -75.744
23661.6     32.019  -114.729
24005.8     32.824  -153.213
24355.0     33.459   172.196
24709.2     34.114   144.800
25068.6     34.875   125.003
25433.2     35.500   106.868
25803.2     35.727    81.596
26178.5     35.275    42.229
26559.3     34.210   -12.566
26945.6     32.962   -77.455
27337.5     32.275  -141.775
27735.2     32.871   166.192
28138.6     34.389   133.230
28547.9     36.082   119.997
28963.1     37.475   120.772
29384.4     38.260   125.660
29811.8     38.592   128.183
30245.4     38.403   129.077
30685.3     37.567   133.450
31131.7     36.271   145.419
31584.5     34.616   167.221
32043.9     32.796  -159.344
32510.0     31.413  -117.270
32982.8     30.709   -74.868
33462.6     30.494   -40.096
33949.3     30.498   -17.749
34443.1     30.836    -8.616
34944.1     31.629   -10.214
35452.4     32.865   -18.182
35968.0     34.306   -28.486
36491.2     35.493   -40.771
37022.0     36.054   -57.652
37560.5     35.996   -80.445
38106.8     35.424  -105.319
38661.1     34.839  -127.578
39223.4     34.237  -145.927
39793.9     33.793  -160.885
