Freq[Hz]     dBSPL  Phase[Deg]
5.00000     -7.904   -18.478
5.07273     -7.561   -18.572
5.14651     -7.190   -18.670
5.22137     -6.779   -18.774
5.29732     -6.352   -18.880
5.37437     -5.906   -18.990
5.45254     -5.461   -19.102
5.53185     -5.015   -19.215
5.61231     -4.569   -19.330
5.69394     -4.123   -19.447
5.77676     -3.678   -19.565
5.86079     -3.232   -19.685
5.94604     -2.786   -19.807
6.03252     -2.340   -19.930
6.12027     -1.895   -20.056
6.20929     -1.449   -20.183
6.29961     -1.003   -20.312
6.39124     -0.557   -20.443
6.48420     -0.111   -20.576
6.57851      0.334   -20.711
6.67420      0.780   -20.847
6.77128      1.226   -20.986
6.86977      1.672   -21.127
6.96969      2.118   -21.270
7.07107      2.563   -21.415
7.17392      3.009   -21.562
7.27827      3.455   -21.711
7.38413      3.901   -21.862
7.49154      4.347   -22.016
7.60050      4.793   -22.172
7.71105      5.239   -22.330
7.82321      5.685   -22.490
7.93701      6.131   -22.653
8.05245      6.577   -22.818
8.16958      7.023   -22.986
8.28841      7.469   -23.156
8.40896      7.915   -23.328
8.53128      8.361   -23.504
8.65537      8.807   -23.681
8.78126      9.253   -23.862
8.90899      9.699   -24.044
9.03857     10.145   -24.230
9.17004     10.591   -24.418
9.30342     11.037   -24.610
9.43874     11.483   -24.803
9.57603     11.929   -25.000
9.71532     12.375   -25.200
9.85663     12.822   -25.402
10.0000     13.268   -25.608
10.1455     13.714   -25.817
10.2930     14.160   -26.028
10.4427     14.607   -26.243
10.5946     15.053   -26.461
10.7487     15.499   -26.682
10.9051     15.945   -26.907
11.0637     16.392   -27.135
11.2246     16.838   -27.366
11.3879     17.285   -27.601
11.5535     17.731   -27.839
11.7216     18.178   -28.080
11.8921     18.624   -28.326
12.0650     19.071   -28.574
12.2405     19.517   -28.827
12.4186     19.964   -29.083
12.5992     20.411   -29.344
12.7825     20.857   -29.608
12.9684     21.304   -29.876
13.1570     21.751   -30.148
13.3484     22.198   -30.424
13.5426     22.645   -30.704
13.7395     23.091   -30.988
13.9394     23.538   -31.277
14.1421     23.985   -31.570
14.3478     24.432   -31.867
14.5565     24.880   -32.169
14.7683     25.327   -32.476
14.9831     25.774   -32.787
15.2010     26.221   -33.102
15.4221     26.669   -33.423
15.6464     27.116   -33.748
15.8740     27.563   -34.079
16.1049     28.011   -34.414
16.3392     28.459   -34.755
16.5768     28.906   -35.100
16.8179     29.354   -35.451
17.0626     29.802   -35.808
17.3107     30.250   -36.170
17.5625     30.698   -36.537
17.8180     31.146   -36.910
18.0771     31.594   -37.289
18.3401     32.042   -37.674
18.6068     32.491   -38.065
18.8775     32.939   -38.462
19.1521     33.388   -38.865
19.4306     33.836   -39.274
19.7133     34.292   -39.678
20.0000     34.762   -40.061
20.2909     35.263   -40.444
20.5860     35.797   -40.894
20.8855     36.339   -41.589
21.1893     36.861   -42.590
21.4975     37.339   -43.708
21.8102     37.748   -44.703
22.1274     38.109   -45.382
22.4492     38.469   -45.643
22.7758     38.865   -45.571
23.1071     39.310   -45.435
23.4432     39.805   -45.494
23.7841     40.322   -45.816
24.1301     40.829   -46.373
24.4811     41.316   -47.108
24.8372     41.782   -47.960
25.1984     42.238   -48.865
25.5649     42.697   -49.751
25.9368     43.167   -50.616
26.3141     43.653   -51.469
26.6968     44.146   -52.360
27.0851     44.634   -53.339
27.4791     45.112   -54.370
27.8788     45.572   -55.428
28.2843     46.020   -56.495
28.6957     46.464   -57.518
29.1131     46.912   -58.499
29.5365     47.374   -59.479
29.9661     47.851   -60.475
30.4020     48.338   -61.532
30.8442     48.827   -62.669
31.2929     49.304   -63.861
31.7480     49.773   -65.102
32.2098     50.235   -66.361
32.6783     50.695   -67.592
33.1536     51.169   -68.849
33.6359     51.656   -70.200
34.1251     52.154   -71.571
34.6215     52.636   -73.073
35.1250     53.087   -74.621
35.6359     53.520   -75.954
36.1543     53.947   -77.197
36.6802     54.386   -78.458
37.2137     54.857   -79.719
37.7550     55.353   -81.126
38.3041     55.859   -82.717
38.8613     56.350   -84.403
39.4265     56.826   -86.053
40.0000     57.292   -87.645
40.5818     57.755   -89.239
41.1721     58.220   -90.883
41.7710     58.690   -92.581
42.3785     59.159   -94.332
42.9949     59.629   -96.133
43.6203     60.104   -97.942
44.2548     60.577   -99.786
44.8985     61.049  -101.678
45.5515     61.524  -103.594
46.2141     61.994  -105.574
46.8863     62.458  -107.606
47.5683     62.914  -109.647
48.2602     63.366  -111.727
48.9621     63.819  -113.864
49.6743     64.273  -116.052
50.3968     64.727  -118.324
51.1299     65.182  -120.666
51.8736     65.631  -123.046
52.6281     66.072  -125.436
53.3936     66.507  -127.814
54.1702     66.937  -130.237
54.9581     67.362  -132.754
55.7575     67.781  -135.343
56.5685     68.194  -138.027
57.3914     68.597  -140.773
58.2261     68.992  -143.521
59.0730     69.379  -146.289
59.9323     69.758  -149.094
60.8040     70.131  -151.936
61.6884     70.496  -154.838
62.5857     70.852  -157.772
63.4960     71.195  -160.758
64.4196     71.520  -163.798
65.3566     71.828  -166.855
66.3073     72.121  -169.937
67.2717     72.405  -173.012
68.2502     72.683  -176.053
69.2429     72.955  -179.099
70.2501     73.219   177.831
71.2719     73.468   174.714
72.3086     73.696   171.556
73.3603     73.904   168.404
74.4274     74.097   165.290
75.5099     74.279   162.235
76.6083     74.453   159.241
77.7226     74.620   156.279
78.8531     74.777   153.341
80.0000     74.918   150.429
81.1636     75.045   147.539
82.3442     75.163   144.695
83.5419     75.272   141.898
84.7570     75.374   139.124
85.9899     75.468   136.393
87.2406     75.554   133.722
88.5096     75.629   131.102
89.7970     75.696   128.537
91.1031     75.758   126.037
92.4282     75.814   123.589
93.7726     75.868   121.183
95.1366     75.916   118.818
96.5204     75.959   116.490
97.9243     75.996   114.204
99.3486     76.027   111.963
100.794     76.050   109.770
102.260     76.070   107.632
103.747     76.085   105.556
105.256     76.096   103.541
106.787     76.108   101.579
108.340     76.121    99.644
109.916     76.134    97.747
111.515     76.144    95.871
113.137     76.152    94.039
114.783     76.154    92.247
116.452     76.154    90.486
118.146     76.152    88.748
119.865     76.146    87.058
121.608     76.135    85.389
123.377     76.119    83.784
125.171     76.100    82.269
126.992     76.084    80.822
128.839     76.074    79.418
130.713     76.070    78.068
132.615     76.072    76.704
134.543     76.077    75.366
136.500     76.087    74.023
138.486     76.094    72.646
140.500     76.097    71.281
142.544     76.096    69.911
144.617     76.090    68.556
146.721     76.082    67.245
148.855     76.072    65.951
151.020     76.063    64.699
153.217     76.052    63.466
155.445     76.040    62.265
157.706     76.029    61.092
160.000     76.015    59.931
162.327     76.002    58.837
164.688     75.991    57.786
167.084     75.983    56.761
169.514     75.982    55.781
171.980     75.990    54.795
174.481     76.005    53.759
177.019     76.019    52.670
179.594     76.027    51.556
182.206     76.028    50.433
184.856     76.022    49.330
187.545     76.011    48.266
190.273     75.997    47.243
193.041     75.983    46.267
195.849     75.971    45.323
198.697     75.959    44.422
201.587     75.954    43.537
204.520     75.948    42.625
207.494     75.933    41.754
210.512     75.920    40.958
213.574     75.912    40.264
216.681     75.924    39.630
219.833     75.964    38.938
223.030     76.014    38.065
226.274     76.053    36.964
229.565     76.061    35.762
232.905     76.033    34.626
236.292     75.990    33.674
239.729     75.947    32.935
243.216     75.924    32.328
246.754     75.922    31.734
250.343     75.928    31.085
253.984     75.936    30.418
257.678     75.952    29.773
261.426     75.978    29.060
265.229     76.005    28.262
269.087     76.024    27.406
273.001     76.032    26.450
276.972     76.007    25.556
281.000     75.976    24.880
285.088     75.965    24.335
289.234     75.980    23.833
293.441     76.019    23.203
297.709     76.059    22.398
302.040     76.082    21.478
306.433     76.084    20.534
310.890     76.062    19.696
315.412     76.037    19.029
320.000     76.028    18.501
324.655     76.042    17.939
329.377     76.060    17.318
334.168     76.089    16.642
339.028     76.111    15.852
343.959     76.109    15.102
348.962     76.112    14.484
354.038     76.131    13.868
359.188     76.140    13.204
364.412     76.164    12.656
369.713     76.214    11.965
375.090     76.246    11.089
380.546     76.266    10.291
386.081     76.289     9.437
391.697     76.302     8.601
397.394     76.306     7.722
403.175     76.282     6.893
409.039     76.268     6.392
414.989     76.287     5.857
421.025     76.330     5.321
427.149     76.396     4.661
433.362     76.468     3.712
439.665     76.501     2.541
446.060     76.490     1.321
452.548     76.454     0.317
459.131     76.405    -0.498
465.809     76.373    -1.098
472.584     76.393    -1.603
479.458     76.424    -2.438
486.432     76.432    -3.413
493.507     76.403    -4.299
500.686     76.379    -5.000
507.968     76.374    -5.608
515.357     76.372    -6.308
522.853     76.367    -6.819
530.458     76.404    -7.409
538.174     76.433    -8.129
546.002     76.481    -8.916
553.943     76.516    -9.976
562.001     76.520   -11.088
570.175     76.526   -12.135
578.469     76.486   -13.293
586.883     76.424   -14.097
595.419     76.413   -14.636
604.080     76.402   -15.381
612.866     76.390   -16.319
621.780     76.372   -17.051
630.824     76.352   -17.784
640.000     76.336   -18.489
649.309     76.354   -18.954
658.753     76.412   -19.830
668.335     76.421   -21.036
678.056     76.422   -22.296
687.919     76.369   -23.656
697.925     76.257   -24.479
708.077     76.213   -24.834
718.376     76.229   -25.319
728.825     76.223   -25.950
739.426     76.260   -26.655
750.181     76.307   -27.520
761.093     76.316   -28.715
772.163     76.315   -29.639
783.394     76.341   -30.686
794.789     76.314   -32.038
806.349     76.260   -33.165
818.078     76.217   -34.318
829.977     76.119   -35.417
842.050     76.053   -36.064
854.298     76.037   -36.840
866.724     76.004   -37.633
879.330     75.990   -38.382
892.120     75.999   -39.399
905.097     75.970   -40.536
918.262     75.911   -41.619
931.618     75.825   -42.616
945.169     75.757   -43.327
958.917     75.698   -43.916
972.864     75.683   -44.509
987.015     75.688   -45.295
1001.37     75.677   -46.201
1015.94     75.663   -47.155
1030.71     75.649   -48.207
1045.71     75.627   -49.088
1060.92     75.639   -49.908
1076.35     75.648   -51.042
1092.00     75.601   -52.296
1107.89     75.521   -53.221
1124.00     75.517   -53.893
1140.35     75.569   -55.413
1156.94     75.476   -56.419
1173.77     75.523   -56.597
1190.84     75.649   -57.702
1208.16     75.692   -59.153
1225.73     75.724   -61.108
1243.56     75.654   -63.353
1261.65     75.503   -64.910
1280.00     75.419   -66.213
1298.62     75.374   -67.503
1317.51     75.329   -68.741
1336.67     75.296   -70.272
1356.11     75.181   -71.572
1375.84     75.103   -72.466
1395.85     75.044   -73.451
1416.15     74.994   -74.317
1436.75     75.040   -75.401
1457.65     75.034   -76.998
1478.85     75.022   -78.485
1500.36     75.003   -80.017
1522.19     74.966   -81.653
1544.33     75.023   -83.265
1566.79     75.035   -85.639
1589.58     75.040   -88.271
1612.70     75.002   -90.972
1636.16     74.856   -93.848
1659.95     74.739   -96.673
1684.10     74.516   -99.348
1708.60     74.263  -102.103
1733.45     74.034  -104.715
1758.66     73.721  -107.016
1784.24     73.406  -109.181
1810.19     73.110  -111.199
1836.52     72.794  -113.026
1863.24     72.496  -114.833
1890.34     72.158  -116.741
1917.83     71.780  -119.054
1945.73     71.309  -121.219
1974.03     70.534  -122.863
2002.74     69.538  -122.067
2031.87     68.845  -117.516
2061.43     68.679  -113.562
2091.41     68.724  -111.989
2121.83     68.738  -111.816
2152.69     68.753  -111.948
2184.01     68.795  -112.426
2215.77     68.738  -113.215
2248.00     68.594  -113.781
2280.70     68.378  -114.556
2313.87     68.167  -115.208
2347.53     67.952  -115.515
2381.68     67.748  -115.175
2416.32     67.671  -114.131
2451.46     67.663  -113.473
2487.12     67.626  -112.847
2523.30     67.651  -111.821
2560.00     67.743  -111.482
2597.24     67.901  -111.450
2635.01     68.118  -111.714
2673.34     68.279  -113.197
2712.23     68.348  -114.879
2751.68     68.360  -116.602
2791.70     68.303  -118.436
2832.31     68.267  -119.893
2873.50     68.301  -121.737
2915.30     68.337  -124.313
2957.70     68.323  -127.522
3000.72     68.199  -131.435
3044.37     67.913  -135.623
3088.65     67.452  -139.735
3133.58     66.829  -143.970
3179.16     65.774  -147.947
3225.40     64.465  -147.895
3272.31     63.404  -145.590
3319.91     62.423  -141.879
3368.20     61.566  -135.924
3417.19     61.096  -127.986
3466.89     61.152  -118.961
3517.32     61.799  -111.640
3568.48     62.681  -107.649
3620.39     63.434  -105.851
3673.05     64.017  -104.787
3726.47     64.577  -103.438
3780.67     65.272  -102.293
3835.67     66.142  -102.093
3891.46     67.073  -103.406
3948.06     67.977  -106.226
4005.49     68.789  -110.050
4063.75     69.475  -114.458
4122.86     70.084  -119.532
4182.82     70.614  -125.343
4243.66     71.008  -131.991
4305.39     71.236  -139.244
4368.01     71.278  -146.677
4431.55     71.128  -153.997
4496.01     70.814  -161.001
4561.40     70.357  -167.672
4627.75     69.760  -174.118
4695.06     68.980   179.604
4763.35     67.950   173.589
4832.64     66.544   168.316
4902.93     64.598   165.197
4974.24     61.997   167.709
5046.60     59.272  -176.385
5120.00     59.254  -147.364
5194.47     62.048  -131.043
5270.03     64.712  -128.496
5346.68     66.675  -131.582
5424.45     68.081  -136.629
5503.35     69.098  -142.278
5583.40     69.845  -147.979
5664.61     70.400  -153.558
5747.01     70.836  -158.622
5830.60     71.224  -163.110
5915.41     71.607  -167.284
6001.45     72.014  -171.332
6088.74     72.453  -175.654
6177.30     72.882   179.356
6267.15     73.242   173.696
6358.31     73.513   167.781
6450.80     73.700   162.025
6544.62     73.819   156.608
6639.82     73.899   151.636
6736.40     73.988   147.063
6834.38     74.107   142.719
6933.79     74.266   138.555
7034.64     74.484   134.400
7136.96     74.747   129.948
7240.77     75.029   125.074
7346.09     75.308   119.723
7452.94     75.562   113.934
7561.35     75.791   107.803
7671.33     75.977   101.373
7782.91     76.102    94.890
7896.12     76.193    88.488
8010.97     76.244    82.037
8127.49     76.243    75.678
8245.71     76.229    69.508
8365.65     76.218    63.354
8487.33     76.199    57.208
8610.78     76.186    51.153
8736.03     76.183    45.156
8863.09     76.181    39.209
8992.01     76.183    33.374
9122.80     76.203    27.656
9255.50     76.257    21.998
9390.12     76.360    16.266
9526.70     76.510    10.261
9665.27     76.689     3.930
9805.86     76.900    -2.725
9948.49     77.147    -9.862
10093.2     77.401   -17.679
10240.0     77.605   -26.165
10388.9     77.717   -35.046
10540.1     77.732   -43.999
10693.4     77.670   -52.798
10848.9     77.560   -61.329
11006.7     77.433   -69.625
11166.8     77.303   -77.758
11329.2     77.171   -85.760
11494.0     77.045   -93.661
11661.2     76.924  -101.491
11830.8     76.807  -109.229
12002.9     76.704  -116.881
12177.5     76.614  -124.506
12354.6     76.540  -132.129
12534.3     76.490  -139.822
12716.6     76.463  -147.664
12901.6     76.457  -155.688
13089.2     76.471  -163.968
13279.6     76.494  -172.511
13472.8     76.520   178.721
13668.8     76.542   169.734
13867.6     76.556   160.602
14069.3     76.569   151.345
14273.9     76.579   141.959
14481.5     76.586   132.455
14692.2     76.586   122.831
14905.9     76.578   113.130
15122.7     76.568   103.372
15342.7     76.569    93.541
15565.8     76.593    83.584
15792.2     76.648    73.401
16021.9     76.723    62.934
16255.0     76.802    52.169
16491.4     76.870    41.182
16731.3     76.924    30.070
16974.7     76.969    18.845
17221.6     77.013     7.491
17472.1     77.042    -4.073
17726.2     77.047   -15.891
17984.0     77.014   -27.893
18245.6     76.938   -40.002
18511.0     76.837   -52.136
18780.2     76.734   -64.274
19053.4     76.652   -76.506
19330.5     76.604   -88.915
19611.7     76.594  -101.554
19897.0     76.626  -114.453
20186.4     76.692  -127.659
20480.0     76.773  -141.263
20777.9     76.845  -155.295
21080.1     76.876  -169.681
21386.7     76.847   175.711
21697.8     76.762   161.078
22013.4     76.639   146.616
22333.6     76.507   132.372
22658.4     76.398   118.233
22988.0     76.325   103.999
23322.4     76.287    89.484
23661.6     76.265    74.562
24005.8     76.240    59.217
24355.0     76.197    43.567
24709.2     76.129    27.774
25068.6     76.041    11.948
25433.2     75.949    -3.887
25803.2     75.864   -19.808
26178.5     75.793   -35.939
26559.3     75.736   -52.383
26945.6     75.684   -69.156
27337.5     75.631   -86.173
27735.2     75.583  -103.323
28138.6     75.545  -120.556
28547.9     75.526  -137.903
28963.1     75.533  -155.484
29384.4     75.559  -173.482
29811.8     75.584   167.971
30245.4     75.588   148.932
30685.3     75.571   129.561
31131.7     75.544   109.990
31584.5     75.518    90.334
32043.9     75.513    70.645
32510.0     75.542    50.846
32982.8     75.602    30.862
33462.6     75.697    10.675
33949.3     75.840    -9.814
34443.1     76.027   -30.721
34944.1     76.259   -52.117
35452.4     76.534   -74.143
35968.0     76.834   -96.892
36491.2     77.147  -120.355
37022.0     77.466  -144.596
37560.5     77.769  -169.634
38106.8     78.006   166.822
38661.1     78.185   144.689
39223.4     78.264   126.985
39793.9     78.266   112.312
