Freq[Hz]     dBSPL  Phase[Deg]
5.00000     -7.902   -18.110
5.07273     -7.560   -18.205
5.14651     -7.190   -18.305
5.22137     -6.780   -18.411
5.29732     -6.354   -18.521
5.37437     -5.910   -18.634
5.45254     -5.466   -18.749
5.53185     -5.021   -18.865
5.61231     -4.577   -18.983
5.69394     -4.133   -19.103
5.77676     -3.688   -19.225
5.86079     -3.244   -19.349
5.94604     -2.800   -19.474
6.03252     -2.355   -19.601
6.12027     -1.911   -19.730
6.20929     -1.467   -19.861
6.29961     -1.022   -19.993
6.39124     -0.578   -20.128
6.48420     -0.134   -20.265
6.57851      0.311   -20.403
6.67420      0.755   -20.544
6.77128      1.199   -20.687
6.86977      1.644   -20.831
6.96969      2.088   -20.978
7.07107      2.533   -21.127
7.17392      2.977   -21.279
7.27827      3.421   -21.432
7.38413      3.866   -21.588
7.49154      4.310   -21.746
7.60050      4.755   -21.906
7.71105      5.199   -22.069
7.82321      5.644   -22.234
7.93701      6.088   -22.401
8.05245      6.533   -22.571
8.16958      6.977   -22.743
8.28841      7.422   -22.918
8.40896      7.866   -23.096
8.53128      8.311   -23.276
8.65537      8.755   -23.459
8.78126      9.200   -23.644
8.90899      9.645   -23.832
9.03857     10.089   -24.023
9.17004     10.534   -24.217
9.30342     10.979   -24.413
9.43874     11.423   -24.613
9.57603     11.868   -24.815
9.71532     12.313   -25.020
9.85663     12.757   -25.229
10.0000     13.202   -25.440
10.1455     13.647   -25.655
10.2930     14.092   -25.873
10.4427     14.537   -26.094
10.5946     14.981   -26.318
10.7487     15.426   -26.545
10.9051     15.871   -26.776
11.0637     16.316   -27.010
11.2246     16.761   -27.248
11.3879     17.206   -27.489
11.5535     17.651   -27.734
11.7216     18.096   -27.983
11.8921     18.541   -28.235
12.0650     18.986   -28.491
12.2405     19.432   -28.751
12.4186     19.877   -29.014
12.5992     20.322   -29.282
12.7825     20.767   -29.553
12.9684     21.213   -29.829
13.1570     21.658   -30.109
13.3484     22.103   -30.392
13.5426     22.549   -30.681
13.7395     22.994   -30.973
13.9394     23.440   -31.270
14.1421     23.885   -31.571
14.3478     24.331   -31.877
14.5565     24.777   -32.187
14.7683     25.222   -32.502
14.9831     25.668   -32.822
15.2010     26.114   -33.147
15.4221     26.560   -33.476
15.6464     27.006   -33.811
15.8740     27.452   -34.151
16.1049     27.898   -34.496
16.3392     28.344   -34.846
16.5768     28.790   -35.201
16.8179     29.237   -35.562
17.0626     29.683   -35.928
17.3107     30.129   -36.300
17.5625     30.576   -36.678
17.8180     31.023   -37.062
18.0771     31.469   -37.451
18.3401     31.916   -37.847
18.6068     32.363   -38.248
18.8775     32.810   -38.656
19.1521     33.257   -39.071
19.4306     33.704   -39.491
19.7133     34.158   -39.908
20.0000     34.628   -40.307
20.2909     35.127   -40.713
20.5860     35.662   -41.195
20.8855     36.204   -41.927
21.1893     36.728   -42.969
21.4975     37.205   -44.129
21.8102     37.611   -45.161
22.1274     37.966   -45.865
22.4492     38.321   -46.136
22.7758     38.711   -46.056
23.1071     39.154   -45.900
23.4432     39.651   -45.933
23.7841     40.171   -46.242
24.1301     40.680   -46.812
24.4811     41.167   -47.575
24.8372     41.632   -48.465
25.1984     42.086   -49.404
25.5649     42.543   -50.307
25.9368     43.013   -51.175
26.3141     43.500   -52.025
26.6968     43.994   -52.916
27.0851     44.484   -53.905
27.4791     44.963   -54.957
27.8788     45.424   -56.047
28.2843     45.870   -57.150
28.6957     46.311   -58.206
29.1131     46.756   -59.215
29.5365     47.214   -60.213
29.9661     47.689   -61.217
30.4020     48.174   -62.274
30.8442     48.661   -63.408
31.2929     49.138   -64.603
31.7480     49.606   -65.849
32.2098     50.068   -67.120
32.6783     50.526   -68.369
33.1536     50.998   -69.636
33.6359     51.486   -70.981
34.1251     51.986   -72.337
34.6215     52.472   -73.827
35.1250     52.931   -75.386
35.6359     53.368   -76.756
36.1543     53.796   -78.061
36.6802     54.234   -79.391
37.2137     54.701   -80.706
37.7550     55.193   -82.143
38.3041     55.695   -83.745
38.8613     56.185   -85.437
39.4265     56.660   -87.089
40.0000     57.125   -88.689
40.5818     57.588   -90.295
41.1721     58.055   -91.953
41.7710     58.527   -93.673
42.3785     58.999   -95.462
42.9949     59.470   -97.315
43.6203     59.941   -99.175
44.2548     60.410  -101.063
44.8985     60.877  -102.982
45.5515     61.347  -104.908
46.2141     61.815  -106.888
46.8863     62.278  -108.925
47.5683     62.734  -110.978
48.2602     63.185  -113.074
48.9621     63.638  -115.229
49.6743     64.091  -117.432
50.3968     64.545  -119.719
51.1299     65.001  -122.078
51.8736     65.450  -124.476
52.6281     65.893  -126.889
53.3936     66.330  -129.295
54.1702     66.762  -131.756
54.9581     67.186  -134.319
55.7575     67.604  -136.954
56.5685     68.014  -139.681
57.3914     68.414  -142.464
58.2261     68.806  -145.238
59.0730     69.190  -148.027
59.9323     69.567  -150.852
60.8040     69.939  -153.715
61.6884     70.303  -156.639
62.5857     70.659  -159.596
63.4960     71.001  -162.611
64.4196     71.325  -165.681
65.3566     71.632  -168.770
66.3073     71.924  -171.885
67.2717     72.207  -174.989
68.2502     72.483  -178.061
69.2429     72.755   178.861
70.2501     73.017   175.762
71.2719     73.263   172.619
72.3086     73.490   169.438
73.3603     73.697   166.261
74.4274     73.890   163.120
75.5099     74.072   160.037
76.6083     74.246   157.006
77.7226     74.413   154.006
78.8531     74.568   151.027
80.0000     74.708   148.073
81.1636     74.833   145.134
82.3442     74.947   142.243
83.5419     75.053   139.408
84.7570     75.151   136.602
85.9899     75.243   133.845
87.2406     75.327   131.154
88.5096     75.401   128.507
89.7970     75.468   125.907
91.1031     75.528   123.371
92.4282     75.584   120.885
93.7726     75.636   118.437
95.1366     75.683   116.031
96.5204     75.724   113.661
97.9243     75.760   111.330
99.3486     75.788   109.042
100.794     75.809   106.798
102.260     75.827   104.611
103.747     75.837   102.484
105.256     75.844   100.420
106.787     75.852    98.422
108.340     75.861    96.460
109.916     75.870    94.543
111.515     75.880    92.653
113.137     75.888    90.800
114.783     75.893    88.972
116.452     75.896    87.160
118.146     75.897    85.358
119.865     75.892    83.591
121.608     75.881    81.836
123.377     75.865    80.146
125.171     75.842    78.541
126.992     75.822    77.005
128.839     75.807    75.516
130.713     75.798    74.078
132.615     75.794    72.626
134.543     75.790    71.197
136.500     75.787    69.775
138.486     75.782    68.345
140.500     75.772    66.946
142.544     75.763    65.560
144.617     75.752    64.187
146.721     75.742    62.842
148.855     75.730    61.496
151.020     75.717    60.177
153.217     75.699    58.874
155.445     75.679    57.621
157.706     75.663    56.409
160.000     75.647    55.207
162.327     75.632    54.062
164.688     75.622    52.937
167.084     75.612    51.813
169.514     75.606    50.723
171.980     75.607    49.622
174.481     75.611    48.481
177.019     75.611    47.307
179.594     75.606    46.138
182.206     75.596    44.978
184.856     75.584    43.836
187.545     75.569    42.719
190.273     75.554    41.616
193.041     75.539    40.533
195.849     75.522    39.471
198.697     75.506    38.432
201.587     75.494    37.398
204.520     75.478    36.313
207.494     75.449    35.238
210.512     75.411    34.239
213.574     75.368    33.380
216.681     75.341    32.647
219.833     75.342    31.911
223.030     75.357    31.063
226.274     75.373    30.027
229.565     75.369    28.867
232.905     75.332    27.724
236.292     75.280    26.735
239.729     75.226    25.927
243.216     75.188    25.249
246.754     75.167    24.575
250.343     75.150    23.878
253.984     75.138    23.186
257.678     75.137    22.488
261.426     75.141    21.746
265.229     75.151    20.932
269.087     75.153    20.013
273.001     75.142    19.030
276.972     75.101    18.055
281.000     75.043    17.275
285.088     74.998    16.700
289.234     74.979    16.213
293.441     74.988    15.694
297.709     75.017    15.044
302.040     75.041    14.208
306.433     75.056    13.305
310.890     75.051    12.302
315.412     75.016    11.334
320.000     74.973    10.546
324.655     74.932     9.800
329.377     74.886     9.159
334.168     74.863     8.653
339.028     74.859     8.044
343.959     74.848     7.396
348.962     74.845     6.729
354.038     74.838     6.017
359.188     74.814     5.283
364.412     74.792     4.708
369.713     74.789     4.102
375.090     74.783     3.421
380.546     74.780     2.803
386.081     74.787     2.079
391.697     74.781     1.362
397.394     74.772     0.594
403.175     74.741    -0.234
409.039     74.690    -0.770
414.989     74.666    -1.199
421.025     74.674    -1.564
427.149     74.701    -2.009
433.362     74.753    -2.613
439.665     74.786    -3.514
446.060     74.772    -4.514
452.548     74.744    -5.213
459.131     74.734    -5.815
465.809     74.747    -6.446
472.584     74.795    -7.164
479.458     74.837    -8.379
486.432     74.805    -9.879
493.507     74.676   -11.054
500.686     74.540   -11.602
507.968     74.447   -11.799
515.357     74.390   -11.829
522.853     74.380   -11.715
530.458     74.452   -11.818
538.174     74.523   -12.352
546.002     74.604   -13.124
553.943     74.664   -14.287
562.001     74.663   -15.581
570.175     74.608   -16.765
578.469     74.492   -17.638
586.883     74.378   -17.904
595.419     74.329   -17.851
604.080     74.321   -17.920
612.866     74.386   -18.300
621.780     74.408   -18.996
630.824     74.409   -19.607
640.000     74.424   -20.153
649.309     74.427   -20.485
658.753     74.503   -20.892
668.335     74.596   -21.752
678.056     74.656   -22.954
687.919     74.680   -24.294
697.925     74.631   -25.423
708.077     74.579   -26.113
718.376     74.580   -26.684
728.825     74.565   -27.409
739.426     74.553   -28.005
750.181     74.578   -28.562
761.093     74.593   -29.327
772.163     74.599   -29.868
783.394     74.659   -30.368
794.789     74.740   -31.246
806.349     74.810   -32.262
818.078     74.896   -33.485
829.977     74.935   -35.063
842.050     74.924   -36.539
854.298     74.912   -37.764
866.724     74.897   -38.993
879.330     74.856   -40.222
892.120     74.839   -41.190
905.097     74.842   -42.249
918.262     74.831   -43.466
931.618     74.820   -44.603
945.169     74.832   -45.783
958.917     74.823   -47.049
972.864     74.841   -48.365
987.015     74.864   -49.966
1001.37     74.840   -51.576
1015.94     74.828   -53.152
1030.71     74.820   -54.895
1045.71     74.737   -56.535
1060.92     74.669   -57.913
1076.35     74.617   -59.508
1092.00     74.503   -61.185
1107.89     74.385   -62.718
1124.00     74.277   -64.186
1140.35     74.139   -66.066
1156.94     73.794   -67.191
1173.77     73.571   -66.768
1190.84     73.566   -66.197
1208.16     73.637   -66.334
1225.73     73.788   -67.044
1243.56     73.917   -68.671
1261.65     73.900   -70.468
1280.00     73.887   -72.127
1298.62     73.811   -73.545
1317.51     73.748   -74.594
1336.67     73.777   -75.759
1356.11     73.769   -77.380
1375.84     73.741   -78.865
1395.85     73.708   -80.731
1416.15     73.557   -82.471
1436.75     73.430   -83.446
1457.65     73.347   -84.484
1478.85     73.282   -85.280
1500.36     73.298   -85.907
1522.19     73.360   -87.160
1544.33     73.424   -88.228
1566.79     73.529   -89.641
1589.58     73.630   -91.409
1612.70     73.731   -93.239
1636.16     73.824   -95.756
1659.95     73.869   -98.272
1684.10     73.852  -101.112
1708.60     73.809  -103.741
1733.45     73.745  -105.832
1758.66     73.706  -107.913
1784.24     73.711  -109.662
1810.19     73.736  -111.591
1836.52     73.791  -113.922
1863.24     73.841  -116.371
1890.34     73.874  -119.526
1917.83     73.901  -123.104
1945.73     73.871  -126.737
1974.03     73.747  -130.690
2002.74     73.491  -133.974
2031.87     73.281  -136.121
2061.43     73.146  -138.670
2091.41     72.943  -141.623
2121.83     72.694  -143.897
2152.69     72.495  -145.883
2184.01     72.368  -147.448
2215.77     72.353  -149.016
2248.00     72.368  -151.205
2280.70     72.391  -153.848
2313.87     72.419  -156.897
2347.53     72.371  -160.270
2381.68     72.264  -163.349
2416.32     72.139  -166.077
2451.46     71.998  -168.132
2487.12     71.925  -169.768
2523.30     71.956  -171.389
2560.00     72.074  -173.427
2597.24     72.233  -176.101
2635.01     72.356  -179.460
2673.34     72.390   176.719
2712.23     72.303   172.834
2751.68     72.121   169.370
2791.70     71.933   166.563
2832.31     71.808   164.434
2873.50     71.793   162.699
2915.30     71.916   160.804
2957.70     72.107   158.449
3000.72     72.296   155.619
3044.37     72.424   152.216
3088.65     72.448   148.731
3133.58     72.390   145.831
3179.16     72.417   143.637
3225.40     72.541   140.848
3272.31     72.632   137.947
3319.91     72.745   135.078
3368.20     72.889   132.035
3417.19     73.028   128.805
3466.89     73.130   125.309
3517.32     73.190   121.699
3568.48     73.209   118.180
3620.39     73.200   114.880
3673.05     73.196   111.817
3726.47     73.208   108.867
3780.67     73.226   105.949
3835.67     73.234   103.091
3891.46     73.229   100.322
3948.06     73.231    97.754
4005.49     73.264    95.232
4063.75     73.326    92.537
4122.86     73.389    89.476
4182.82     73.406    86.138
4243.66     73.348    82.869
4305.39     73.235    80.062
4368.01     73.124    77.790
4431.55     73.052    75.811
4496.01     73.031    73.830
4561.40     73.034    71.637
4627.75     73.014    69.256
4695.06     72.964    66.980
4763.35     72.903    64.890
4832.64     72.847    62.992
4902.93     72.812    61.289
4974.24     72.810    59.600
5046.60     72.836    57.806
5120.00     72.873    55.881
5194.47     72.897    53.810
5270.03     72.900    51.727
5346.68     72.887    49.795
5424.45     72.882    47.974
5503.35     72.896    46.140
5583.40     72.920    44.171
5664.61     72.931    42.004
5747.01     72.908    39.763
5830.60     72.852    37.627
5915.41     72.781    35.666
6001.45     72.710    33.773
6088.74     72.635    31.828
6177.30     72.531    29.921
6267.15     72.384    28.255
6358.31     72.212    27.042
6450.80     72.056    26.380
6544.62     71.961    26.057
6639.82     71.933    25.701
6736.40     71.933    25.217
6834.38     71.953    24.758
6933.79     72.024    24.283
7034.64     72.139    23.617
7136.96     72.282    22.697
7240.77     72.454    21.421
7346.09     72.625    19.688
7452.94     72.760    17.579
7561.35     72.846    15.229
7671.33     72.870    12.799
7782.91     72.836    10.492
7896.12     72.762     8.383
8010.97     72.664     6.476
8127.49     72.560     4.757
8245.71     72.468     3.130
8365.65     72.382     1.543
8487.33     72.300     0.076
8610.78     72.242    -1.160
8736.03     72.231    -2.203
8863.09     72.268    -3.290
8992.01     72.324    -4.594
9122.80     72.374    -6.071
9255.50     72.425    -7.771
9390.12     72.465    -9.879
9526.70     72.448   -12.333
9665.27     72.365   -14.850
9805.86     72.238   -17.289
9948.49     72.076   -19.631
10093.2     71.880   -21.809
10240.0     71.660   -23.804
10388.9     71.411   -25.530
10540.1     71.155   -26.847
10693.4     70.929   -27.825
10848.9     70.756   -28.678
11006.7     70.626   -29.702
11166.8     70.497   -31.001
11329.2     70.343   -32.488
11494.0     70.141   -34.083
11661.2     69.874   -35.505
11830.8     69.569   -36.496
12002.9     69.259   -37.041
12177.5     68.964   -37.106
12354.6     68.726   -36.764
12534.3     68.564   -36.263
12716.6     68.480   -35.731
12901.6     68.486   -35.368
13089.2     68.567   -35.476
13279.6     68.684   -36.182
13472.8     68.797   -37.608
13668.8     68.851   -39.701
13867.6     68.817   -42.165
14069.3     68.684   -44.720
14273.9     68.462   -47.047
14481.5     68.192   -48.972
14692.2     67.897   -50.505
14905.9     67.596   -51.701
15122.7     67.298   -52.658
15342.7     67.005   -53.427
15565.8     66.728   -53.995
15792.2     66.480   -54.410
16021.9     66.291   -54.807
16255.0     66.162   -55.361
16491.4     66.060   -56.254
16731.3     65.949   -57.523
16974.7     65.781   -59.027
17221.6     65.525   -60.498
17472.1     65.172   -61.617
17726.2     64.741   -62.119
17984.0     64.272   -61.845
18245.6     63.809   -60.851
18511.0     63.407   -59.335
18780.2     63.100   -57.568
19053.4     62.901   -55.874
19330.5     62.811   -54.440
19611.7     62.818   -53.325
19897.0     62.916   -52.560
20186.4     63.095   -52.174
20480.0     63.328   -52.232
20777.9     63.584   -52.839
21080.1     63.823   -54.034
21386.7     64.005   -55.725
21697.8     64.114   -57.733
22013.4     64.157   -59.873
22333.6     64.158   -62.074
22658.4     64.131   -64.433
22988.0     64.072   -67.113
23322.4     63.958   -70.191
23661.6     63.749   -73.555
24005.8     63.415   -76.911
24355.0     62.945   -79.851
24709.2     62.362   -81.978
25068.6     61.714   -83.055
25433.2     61.048   -83.052
25803.2     60.412   -82.148
26178.5     59.834   -80.627
26559.3     59.334   -78.698
26945.6     58.937   -76.548
27337.5     58.645   -74.257
27735.2     58.465   -71.782
28138.6     58.401   -69.251
28547.9     58.422   -66.713
28963.1     58.528   -64.100
29384.4     58.746   -61.656
29811.8     59.076   -59.658
30245.4     59.513   -58.338
30685.3     60.034   -58.105
31131.7     60.578   -59.201
31584.5     61.078   -61.518
32043.9     61.497   -64.705
32510.0     61.836   -68.316
32982.8     62.123   -72.096
33462.6     62.385   -76.035
33949.3     62.626   -80.299
34443.1     62.833   -85.120
34944.1     62.956   -90.541
35452.4     62.961   -96.343
35968.0     62.845  -102.244
36491.2     62.627  -107.990
37022.0     62.352  -113.463
37560.5     62.061  -118.919
38106.8     61.797  -124.428
38661.1     61.522  -130.284
39223.4     61.274  -135.902
39793.9     61.044  -141.405
