Freq[Hz]     dBSPL  Phase[Deg]
5.00000     -8.372   -16.786
5.07273     -8.029   -16.886
5.14651     -7.659   -16.992
5.22137     -7.248   -17.106
5.29732     -6.821   -17.225
5.37437     -6.375   -17.348
5.45254     -5.930   -17.474
5.53185     -5.484   -17.601
5.61231     -5.039   -17.730
5.69394     -4.594   -17.861
5.77676     -4.148   -17.993
5.86079     -3.703   -18.128
5.94604     -3.257   -18.265
6.03252     -2.812   -18.403
6.12027     -2.366   -18.544
6.20929     -1.921   -18.687
6.29961     -1.475   -18.832
6.39124     -1.030   -18.978
6.48420     -0.584   -19.128
6.57851     -0.139   -19.279
6.67420      0.307   -19.432
6.77128      0.752   -19.588
6.86977      1.198   -19.746
6.96969      1.643   -19.906
7.07107      2.089   -20.069
7.17392      2.534   -20.234
7.27827      2.980   -20.401
7.38413      3.426   -20.571
7.49154      3.871   -20.744
7.60050      4.317   -20.918
7.71105      4.762   -21.096
7.82321      5.208   -21.276
7.93701      5.654   -21.459
8.05245      6.099   -21.644
8.16958      6.545   -21.832
8.28841      6.991   -22.023
8.40896      7.436   -22.216
8.53128      7.882   -22.413
8.65537      8.328   -22.612
8.78126      8.774   -22.814
8.90899      9.219   -23.020
9.03857      9.665   -23.228
9.17004     10.111   -23.439
9.30342     10.557   -23.654
9.43874     11.003   -23.871
9.57603     11.448   -24.092
9.71532     11.894   -24.316
9.85663     12.340   -24.543
10.0000     12.786   -24.774
10.1455     13.232   -25.008
10.2930     13.678   -25.246
10.4427     14.124   -25.487
10.5946     14.570   -25.731
10.7487     15.016   -25.979
10.9051     15.462   -26.231
11.0637     15.908   -26.487
11.2246     16.354   -26.746
11.3879     16.800   -27.009
11.5535     17.247   -27.276
11.7216     17.693   -27.547
11.8921     18.139   -27.822
12.0650     18.585   -28.101
12.2405     19.032   -28.385
12.4186     19.478   -28.672
12.5992     19.924   -28.964
12.7825     20.371   -29.260
12.9684     20.817   -29.560
13.1570     21.264   -29.865
13.3484     21.710   -30.175
13.5426     22.157   -30.489
13.7395     22.603   -30.808
13.9394     23.050   -31.131
14.1421     23.497   -31.460
14.3478     23.943   -31.793
14.5565     24.390   -32.132
14.7683     24.837   -32.475
14.9831     25.284   -32.824
15.2010     25.731   -33.178
15.4221     26.178   -33.537
15.6464     26.625   -33.901
15.8740     27.072   -34.272
16.1049     27.520   -34.647
16.3392     27.967   -35.029
16.5768     28.414   -35.416
16.8179     28.862   -35.809
17.0626     29.309   -36.208
17.3107     29.757   -36.614
17.5625     30.205   -37.025
17.8180     30.652   -37.443
18.0771     31.100   -37.867
18.3401     31.548   -38.298
18.6068     31.996   -38.735
18.8775     32.444   -39.180
19.1521     32.893   -39.631
19.4306     33.341   -40.089
19.7133     33.797   -40.540
20.0000     34.269   -40.964
20.2909     34.775   -41.378
20.5860     35.320   -41.848
20.8855     35.876   -42.562
21.1893     36.416   -43.597
21.4975     36.908   -44.776
21.8102     37.326   -45.870
22.1274     37.687   -46.665
22.4492     38.042   -47.029
22.7758     38.428   -47.022
23.1071     38.863   -46.917
23.4432     39.352   -46.979
23.7841     39.867   -47.297
24.1301     40.374   -47.872
24.4811     40.862   -48.648
24.8372     41.328   -49.558
25.1984     41.784   -50.524
25.5649     42.242   -51.461
25.9368     42.711   -52.364
26.3141     43.199   -53.238
26.6968     43.694   -54.145
27.0851     44.185   -55.146
27.4791     44.665   -56.209
27.8788     45.126   -57.314
28.2843     45.572   -58.439
28.6957     46.016   -59.519
29.1131     46.464   -60.556
29.5365     46.926   -61.589
29.9661     47.405   -62.634
30.4020     47.893   -63.745
30.8442     48.381   -64.938
31.2929     48.857   -66.188
31.7480     49.322   -67.486
32.2098     49.782   -68.799
32.6783     50.240   -70.078
33.1536     50.714   -71.373
33.6359     51.205   -72.753
34.1251     51.708   -74.143
34.6215     52.198   -75.692
35.1250     52.657   -77.337
35.6359     53.090   -78.789
36.1543     53.511   -80.189
36.6802     53.940   -81.617
37.2137     54.396   -82.993
37.7550     54.880   -84.465
38.3041     55.377   -86.083
38.8613     55.863   -87.779
39.4265     56.334   -89.435
40.0000     56.795   -91.046
40.5818     57.254   -92.675
41.1721     57.717   -94.362
41.7710     58.182   -96.098
42.3785     58.647   -97.878
42.9949     59.116   -99.701
43.6203     59.591  -101.528
44.2548     60.067  -103.400
44.8985     60.545  -105.337
45.5515     61.025  -107.313
46.2141     61.498  -109.369
46.8863     61.964  -111.483
47.5683     62.419  -113.608
48.2602     62.869  -115.770
48.9621     63.320  -117.985
49.6743     63.770  -120.246
50.3968     64.222  -122.587
51.1299     64.676  -124.992
51.8736     65.124  -127.438
52.6281     65.564  -129.896
53.3936     65.997  -132.339
54.1702     66.426  -134.825
54.9581     66.851  -137.412
55.7575     67.272  -140.073
56.5685     67.685  -142.837
57.3914     68.089  -145.676
58.2261     68.481  -148.516
59.0730     68.865  -151.375
59.9323     69.242  -154.267
60.8040     69.613  -157.189
61.6884     69.977  -160.169
62.5857     70.332  -163.179
63.4960     70.675  -166.249
64.4196     71.001  -169.391
65.3566     71.309  -172.569
66.3073     71.600  -175.785
67.2717     71.877  -178.992
68.2502     72.144   177.853
69.2429     72.404   174.725
70.2501     72.659   171.617
71.2719     72.905   168.476
72.3086     73.136   165.283
73.3603     73.349   162.075
74.4274     73.547   158.876
75.5099     73.733   155.719
76.6083     73.907   152.612
77.7226     74.073   149.536
78.8531     74.228   146.482
80.0000     74.365   143.449
81.1636     74.485   140.445
82.3442     74.595   137.516
83.5419     74.701   134.665
84.7570     74.804   131.843
85.9899     74.907   129.050
87.2406     75.004   126.287
88.5096     75.090   123.523
89.7970     75.165   120.783
91.1031     75.229   118.106
92.4282     75.285   115.475
93.7726     75.336   112.890
95.1366     75.380   110.356
96.5204     75.418   107.866
97.9243     75.450   105.429
99.3486     75.476   103.041
100.794     75.496   100.695
102.260     75.514    98.407
103.747     75.527    96.160
105.256     75.536    93.958
106.787     75.544    91.805
108.340     75.551    89.684
109.916     75.554    87.601
111.515     75.555    85.546
113.137     75.548    83.543
114.783     75.534    81.589
116.452     75.518    79.703
118.146     75.502    77.893
119.865     75.488    76.147
121.608     75.480    74.418
123.377     75.475    72.729
125.171     75.467    71.049
126.992     75.460    69.393
128.839     75.453    67.772
130.713     75.449    66.204
132.615     75.454    64.635
134.543     75.461    63.081
136.500     75.472    61.493
138.486     75.481    59.844
140.500     75.478    58.174
142.544     75.469    56.503
144.617     75.447    54.865
146.721     75.421    53.321
148.855     75.400    51.833
151.020     75.385    50.384
153.217     75.375    48.919
155.445     75.365    47.425
157.706     75.352    45.896
160.000     75.329    44.350
162.327     75.294    42.869
164.688     75.256    41.453
167.084     75.218    40.089
169.514     75.180    38.768
171.980     75.143    37.482
174.481     75.107    36.233
177.019     75.070    35.038
179.594     75.039    33.940
182.206     75.024    32.885
184.856     75.025    31.812
187.545     75.040    30.661
190.273     75.055    29.387
193.041     75.062    28.032
195.849     75.055    26.642
198.697     75.036    25.276
201.587     75.015    23.959
204.520     74.993    22.614
207.494     74.961    21.269
210.512     74.922    19.962
213.574     74.872    18.698
216.681     74.814    17.517
219.833     74.753    16.438
223.030     74.700    15.504
226.274     74.673    14.630
229.565     74.665    13.698
232.905     74.665    12.731
236.292     74.685    11.698
239.729     74.705    10.457
243.216     74.706     9.078
246.754     74.683     7.665
250.343     74.643     6.269
253.984     74.581     4.914
257.678     74.501     3.752
261.426     74.430     2.746
265.229     74.380     1.823
269.087     74.347     0.855
273.001     74.327    -0.211
276.972     74.295    -1.390
281.000     74.247    -2.538
285.088     74.196    -3.585
289.234     74.149    -4.563
293.441     74.121    -5.542
297.709     74.103    -6.630
302.040     74.072    -7.882
306.433     74.012    -9.183
310.890     73.915   -10.282
315.412     73.825   -11.147
320.000     73.763   -11.848
324.655     73.736   -12.541
329.377     73.744   -13.417
334.168     73.760   -14.547
339.028     73.754   -15.900
343.959     73.712   -17.451
348.962     73.620   -18.881
354.038     73.502   -20.113
359.188     73.376   -21.135
364.412     73.252   -21.859
369.713     73.182   -22.350
375.090     73.172   -22.991
380.546     73.165   -23.958
386.081     73.154   -25.084
391.697     73.124   -26.314
397.394     73.076   -27.785
403.175     72.994   -29.354
409.039     72.845   -30.792
414.989     72.679   -32.060
421.025     72.466   -32.902
427.149     72.270   -33.164
433.362     72.162   -33.189
439.665     72.121   -33.309
446.060     72.151   -33.743
452.548     72.189   -34.904
459.131     72.132   -36.300
465.809     72.048   -37.503
472.584     71.916   -38.804
479.458     71.727   -39.386
486.432     71.619   -39.476
493.507     71.585   -39.820
500.686     71.569   -40.171
507.968     71.624   -40.921
515.357     71.640   -42.484
522.853     71.547   -44.251
530.458     71.419   -45.641
538.174     71.244   -46.937
546.002     71.055   -47.611
553.943     70.984   -48.069
562.001     70.903   -49.357
570.175     70.722   -50.456
578.469     70.533   -51.537
586.883     70.210   -52.426
595.419     69.884   -52.211
604.080     69.660   -51.473
612.866     69.571   -50.125
621.780     69.701   -49.394
630.824     69.859   -49.799
640.000     69.943   -50.551
649.309     69.988   -51.843
658.753     69.951   -53.215
668.335     69.887   -54.550
678.056     69.745   -55.684
687.919     69.622   -56.865
697.925     69.435   -58.114
708.077     69.160   -58.776
718.376     68.937   -58.692
728.825     68.829   -58.649
739.426     68.737   -59.012
750.181     68.580   -59.347
761.093     68.431   -59.500
772.163     68.230   -59.852
783.394     67.962   -59.006
794.789     67.875   -57.639
806.349     67.907   -56.434
818.078     68.059   -54.987
829.977     68.340   -54.628
842.050     68.543   -55.378
854.298     68.632   -55.842
866.724     68.751   -56.933
879.330     68.827   -58.610
892.120     68.763   -59.730
905.097     68.743   -60.492
918.262     68.791   -60.963
931.618     68.849   -61.147
945.169     68.962   -61.621
958.917     69.077   -62.098
972.864     69.263   -62.891
987.015     69.422   -64.253
1001.37     69.558   -65.397
1015.94     69.764   -66.803
1030.71     69.927   -68.625
1045.71     69.998   -70.928
1060.92     70.015   -73.025
1076.35     70.036   -74.830
1092.00     70.000   -76.536
1107.89     70.048   -77.820
1124.00     70.208   -79.404
1140.35     70.255   -82.247
1156.94     70.138   -85.379
1173.77     69.923   -87.534
1190.84     69.730   -88.540
1208.16     69.728   -89.875
1225.73     69.656   -90.986
1243.56     69.727   -91.953
1261.65     69.855   -94.084
1280.00     69.863   -96.125
1298.62     69.904   -98.462
1317.51     69.826  -100.867
1336.67     69.731  -102.085
1356.11     69.778  -103.536
1375.84     69.828  -105.587
1395.85     69.880  -107.702
1416.15     69.904  -110.751
1436.75     69.791  -113.645
1457.65     69.634  -115.910
1478.85     69.500  -117.798
1500.36     69.492  -119.519
1522.19     69.474  -121.656
1544.33     69.446  -124.142
1566.79     69.382  -126.265
1589.58     69.285  -128.167
1612.70     69.232  -129.722
1636.16     69.350  -131.253
1659.95     69.520  -133.786
1684.10     69.687  -137.470
1708.60     69.737  -141.376
1733.45     69.705  -145.382
1758.66     69.561  -149.182
1784.24     69.365  -152.633
1810.19     69.159  -156.146
1836.52     68.957  -159.385
1863.24     68.760  -162.698
1890.34     68.584  -166.239
1917.83     68.341  -169.410
1945.73     68.058  -172.247
1974.03     67.757  -174.549
2002.74     67.465  -175.633
2031.87     67.420  -176.149
2061.43     67.596  -177.431
2091.41     67.842  -179.960
2121.83     68.022   175.972
2152.69     68.043   171.379
2184.01     67.940   166.882
2215.77     67.756   162.726
2248.00     67.561   159.038
2280.70     67.363   155.251
2313.87     67.102   151.644
2347.53     66.878   148.474
2381.68     66.671   145.119
2416.32     66.412   142.147
2451.46     66.151   139.770
2487.12     65.954   138.065
2523.30     65.859   136.213
2560.00     65.756   133.811
2597.24     65.656   131.457
2635.01     65.631   128.878
2673.34     65.590   125.675
2712.23     65.429   122.560
2751.68     65.291   119.856
2791.70     65.167   117.400
2832.31     65.035   114.852
2873.50     64.961   112.610
2915.30     64.990   110.399
2957.70     65.029   107.856
3000.72     65.102   105.679
3044.37     65.245   103.673
3088.65     65.395   101.170
3133.58     65.534    98.819
3179.16     65.837    96.462
3225.40     66.216    92.398
3272.31     66.469    87.651
3319.91     66.639    82.761
3368.20     66.692    78.053
3417.19     66.656    74.029
3466.89     66.621    70.339
3517.32     66.603    67.115
3568.48     66.685    64.200
3620.39     66.877    60.878
3673.05     67.085    56.986
3726.47     67.262    52.480
3780.67     67.322    47.595
3835.67     67.257    42.630
3891.46     67.094    37.888
3948.06     66.898    33.817
4005.49     66.723    30.131
4063.75     66.594    26.410
4122.86     66.492    22.392
4182.82     66.351    18.153
4243.66     66.142    14.021
4305.39     65.907    10.253
4368.01     65.658     6.969
4431.55     65.436     4.161
4496.01     65.269     1.318
4561.40     65.127    -1.852
4627.75     64.971    -5.228
4695.06     64.800    -8.700
4763.35     64.571   -12.198
4832.64     64.258   -15.330
4902.93     63.886   -17.778
4974.24     63.505   -19.562
5046.60     63.161   -20.888
5120.00     62.914   -22.006
5194.47     62.776   -23.225
5270.03     62.718   -24.760
5346.68     62.674   -26.877
5424.45     62.587   -29.432
5503.35     62.435   -32.067
5583.40     62.244   -34.686
5664.61     62.049   -37.033
5747.01     61.880   -38.990
5830.60     61.770   -41.011
5915.41     61.666   -43.320
6001.45     61.494   -45.805
6088.74     61.249   -48.300
6177.30     60.933   -50.769
6267.15     60.483   -53.219
6358.31     59.898   -55.200
6450.80     59.262   -56.093
6544.62     58.657   -55.872
6639.82     58.181   -55.084
6736.40     57.939   -54.267
6834.38     57.890   -53.912
6933.79     57.925   -54.123
7034.64     58.011   -54.806
7136.96     58.096   -56.374
7240.77     58.045   -58.490
7346.09     57.894   -60.158
7452.94     57.762   -61.404
7561.35     57.607   -62.369
7671.33     57.442   -62.394
7782.91     57.450   -61.726
7896.12     57.593   -61.737
8010.97     57.716   -62.554
8127.49     57.865   -63.512
8245.71     58.094   -65.083
8365.65     58.283   -67.354
8487.33     58.414   -69.768
8610.78     58.535   -72.801
8736.03     58.517   -76.599
8863.09     58.286   -79.914
8992.01     58.011   -82.122
9122.80     57.752   -83.763
9255.50     57.472   -84.733
9390.12     57.293   -84.917
9526.70     57.267   -85.626
9665.27     57.205   -87.340
9805.86     57.021   -88.947
9948.49     56.822   -90.342
10093.2     56.621   -91.796
10240.0     56.435   -92.895
10388.9     56.335   -93.945
10540.1     56.283   -95.115
10693.4     56.274   -96.060
10848.9     56.293   -96.946
11006.7     56.310   -97.559
11166.8     56.419   -98.046
11329.2     56.611   -99.188
11494.0     56.819  -101.019
11661.2     57.041  -103.704
11830.8     57.201  -107.340
12002.9     57.250  -111.411
12177.5     57.192  -115.663
12354.6     57.016  -119.782
12534.3     56.761  -123.428
12716.6     56.485  -126.685
12901.6     56.238  -129.736
13089.2     56.054  -132.896
13279.6     55.893  -136.525
13472.8     55.686  -140.642
13668.8     55.386  -144.967
13867.6     54.948  -149.200
14069.3     54.374  -152.925
14273.9     53.719  -155.989
14481.5     52.993  -158.502
14692.2     52.207  -160.188
14905.9     51.353  -160.948
15122.7     50.382  -160.431
15342.7     49.331  -158.102
15565.8     48.316  -154.313
15792.2     47.555  -149.558
16021.9     47.277  -144.551
16255.0     47.448  -140.364
16491.4     47.937  -137.161
16731.3     48.606  -134.738
16974.7     49.296  -133.355
17221.6     49.950  -133.240
17472.1     50.526  -134.401
17726.2     50.935  -137.081
17984.0     51.147  -141.258
18245.6     51.158  -146.103
18511.0     50.985  -150.783
18780.2     50.729  -154.863
19053.4     50.504  -158.277
19330.5     50.384  -161.431
19611.7     50.412  -164.985
19897.0     50.543  -169.438
20186.4     50.668  -174.979
20480.0     50.659   178.546
20777.9     50.430   171.471
21080.1     49.955   164.103
21386.7     49.169   156.529
21697.8     48.045   149.180
22013.4     46.670   144.362
22333.6     45.227   144.671
22658.4     44.092   150.153
22988.0     43.678   159.356
23322.4     43.921   169.803
23661.6     44.522   178.053
24005.8     45.234  -177.878
24355.0     45.825  -178.147
24709.2     46.270   178.258
25068.6     46.610   173.271
25433.2     46.753   167.995
25803.2     46.654   162.705
26178.5     46.344   158.157
26559.3     45.889   154.731
26945.6     45.421   152.010
27337.5     45.059   149.547
27735.2     44.828   147.194
28138.6     44.717   145.183
28547.9     44.656   143.404
28963.1     44.577   141.343
29384.4     44.430   138.775
29811.8     44.131   135.494
30245.4     43.752   131.385
30685.3     43.506   126.671
31131.7     43.411   121.606
31584.5     43.344   116.433
32043.9     43.225   111.394
32510.0     42.998   107.025
32982.8     42.670   104.061
33462.6     42.344   102.422
33949.3     42.279   101.616
34443.1     42.653   101.114
34944.1     43.355    99.394
35452.4     44.233    95.056
35968.0     45.134    87.838
36491.2     45.857    77.875
37022.0     46.317    65.735
37560.5     46.575    52.108
38106.8     46.640    38.780
38661.1     46.700    26.235
39223.4     46.730    15.966
39793.9     46.747     7.089
