Freq[Hz]     dBSPL  Phase[Deg]
5.00000     -8.461   -16.258
5.07273     -8.118   -16.360
5.14651     -7.749   -16.469
5.22137     -7.339   -16.587
5.29732     -6.913   -16.710
5.37437     -6.468   -16.838
5.45254     -6.024   -16.968
5.53185     -5.580   -17.100
5.61231     -5.135   -17.234
5.69394     -4.691   -17.370
5.77676     -4.246   -17.507
5.86079     -3.802   -17.647
5.94604     -3.358   -17.789
6.03252     -2.913   -17.933
6.12027     -2.469   -18.079
6.20929     -2.024   -18.227
6.29961     -1.580   -18.377
6.39124     -1.136   -18.530
6.48420     -0.691   -18.685
6.57851     -0.247   -18.842
6.67420      0.198   -19.001
6.77128      0.642   -19.163
6.86977      1.087   -19.327
6.96969      1.531   -19.493
7.07107      1.976   -19.662
7.17392      2.420   -19.833
7.27827      2.865   -20.007
7.38413      3.309   -20.183
7.49154      3.754   -20.362
7.60050      4.198   -20.544
7.71105      4.643   -20.728
7.82321      5.087   -20.915
7.93701      5.532   -21.104
8.05245      5.977   -21.297
8.16958      6.421   -21.492
8.28841      6.866   -21.690
8.40896      7.310   -21.891
8.53128      7.755   -22.095
8.65537      8.200   -22.302
8.78126      8.644   -22.512
8.90899      9.089   -22.725
9.03857      9.534   -22.941
9.17004      9.979   -23.160
9.30342     10.423   -23.383
9.43874     10.868   -23.609
9.57603     11.313   -23.838
9.71532     11.758   -24.070
9.85663     12.203   -24.306
10.0000     12.647   -24.546
10.1455     13.092   -24.789
10.2930     13.537   -25.035
10.4427     13.982   -25.285
10.5946     14.427   -25.539
10.7487     14.872   -25.797
10.9051     15.317   -26.058
11.0637     15.762   -26.323
11.2246     16.207   -26.592
11.3879     16.652   -26.866
11.5535     17.097   -27.143
11.7216     17.542   -27.424
11.8921     17.988   -27.709
12.0650     18.433   -27.999
12.2405     18.878   -28.293
12.4186     19.323   -28.592
12.5992     19.769   -28.894
12.7825     20.214   -29.202
12.9684     20.659   -29.513
13.1570     21.105   -29.830
13.3484     21.550   -30.151
13.5426     21.996   -30.477
13.7395     22.441   -30.808
13.9394     22.887   -31.144
14.1421     23.333   -31.485
14.3478     23.778   -31.831
14.5565     24.224   -32.182
14.7683     24.670   -32.538
14.9831     25.116   -32.900
15.2010     25.562   -33.267
15.4221     26.008   -33.640
15.6464     26.454   -34.018
15.8740     26.900   -34.402
16.1049     27.346   -34.792
16.3392     27.792   -35.188
16.5768     28.238   -35.590
16.8179     28.685   -35.997
17.0626     29.131   -36.412
17.3107     29.578   -36.832
17.5625     30.024   -37.259
17.8180     30.471   -37.692
18.0771     30.918   -38.132
18.3401     31.365   -38.579
18.6068     31.812   -39.033
18.8775     32.259   -39.494
19.1521     32.706   -39.962
19.4306     33.154   -40.437
19.7133     33.608   -40.906
20.0000     34.080   -41.352
20.2909     34.585   -41.795
20.5860     35.131   -42.301
20.8855     35.688   -43.056
21.1893     36.229   -44.134
21.4975     36.722   -45.356
21.8102     37.138   -46.489
22.1274     37.495   -47.317
22.4492     37.845   -47.699
22.7758     38.227   -47.695
23.1071     38.661   -47.579
23.4432     39.150   -47.622
23.7841     39.667   -47.932
24.1301     40.175   -48.523
24.4811     40.663   -49.333
24.8372     41.129   -50.287
25.1984     41.584   -51.294
25.5649     42.040   -52.256
25.9368     42.509   -53.170
26.3141     42.998   -54.046
26.6968     43.494   -54.957
27.0851     43.987   -55.971
27.4791     44.469   -57.059
27.8788     44.931   -58.198
28.2843     45.377   -59.364
28.6957     45.818   -60.485
29.1131     46.263   -61.558
29.5365     46.723   -62.617
29.9661     47.200   -63.680
30.4020     47.687   -64.801
30.8442     48.175   -66.005
31.2929     48.650   -67.271
31.7480     49.115   -68.588
32.2098     49.574   -69.924
32.6783     50.031   -71.232
33.1536     50.503   -72.546
33.6359     50.996   -73.931
34.1251     51.501   -75.315
34.6215     51.995   -76.863
35.1250     52.461   -78.530
35.6359     52.898   -80.027
36.1543     53.320   -81.500
36.6802     53.748   -83.008
37.2137     54.200   -84.448
37.7550     54.680   -85.961
38.3041     55.174   -87.603
38.8613     55.659   -89.317
39.4265     56.129   -90.988
40.0000     56.589   -92.617
40.5818     57.047   -94.268
41.1721     57.511   -95.974
41.7710     57.977   -97.736
42.3785     58.445   -99.556
42.9949     58.915  -101.431
43.6203     59.389  -103.310
44.2548     59.862  -105.232
44.8985     60.336  -107.205
45.5515     60.813  -109.202
46.2141     61.285  -111.272
46.8863     61.751  -113.404
47.5683     62.207  -115.555
48.2602     62.658  -117.747
48.9621     63.109  -119.995
49.6743     63.558  -122.287
50.3968     64.010  -124.655
51.1299     64.465  -127.087
51.8736     64.914  -129.559
52.6281     65.356  -132.048
53.3936     65.791  -134.525
54.1702     66.223  -137.055
54.9581     66.650  -139.694
55.7575     67.071  -142.410
56.5685     67.484  -145.229
57.3914     67.887  -148.119
58.2261     68.277  -151.003
59.0730     68.660  -153.900
59.9323     69.036  -156.828
60.8040     69.408  -159.782
61.6884     69.774  -162.797
62.5857     70.130  -165.845
63.4960     70.474  -168.961
64.4196     70.801  -172.156
65.3566     71.109  -175.390
66.3073     71.401  -178.664
67.2717     71.678   178.075
68.2502     71.944   174.868
69.2429     72.203   171.691
70.2501     72.456   168.539
71.2719     72.700   165.363
72.3086     72.931   162.140
73.3603     73.145   158.902
74.4274     73.345   155.670
75.5099     73.533   152.472
76.6083     73.710   149.315
77.7226     73.879   146.183
78.8531     74.035   143.068
80.0000     74.172   139.968
81.1636     74.292   136.892
82.3442     74.401   133.896
83.5419     74.503   130.994
84.7570     74.606   128.133
85.9899     74.709   125.309
87.2406     74.808   122.517
88.5096     74.897   119.713
89.7970     74.977   116.922
91.1031     75.046   114.186
92.4282     75.104   111.489
93.7726     75.158   108.834
95.1366     75.205   106.232
96.5204     75.244   103.671
97.9243     75.279   101.161
99.3486     75.307    98.701
100.794     75.329    96.280
102.260     75.349    93.918
103.747     75.364    91.591
105.256     75.374    89.309
106.787     75.383    87.083
108.340     75.390    84.893
109.916     75.394    82.747
111.515     75.397    80.635
113.137     75.394    78.569
114.783     75.383    76.538
116.452     75.370    74.570
118.146     75.357    72.684
119.865     75.346    70.859
121.608     75.342    69.060
123.377     75.341    67.305
125.171     75.339    65.542
126.992     75.340    63.792
128.839     75.339    62.070
130.713     75.340    60.390
132.615     75.349    58.721
134.543     75.359    57.059
136.500     75.373    55.363
138.486     75.386    53.615
140.500     75.386    51.840
142.544     75.381    50.071
144.617     75.366    48.330
146.721     75.345    46.667
148.855     75.329    45.064
151.020     75.318    43.494
153.217     75.311    41.910
155.445     75.305    40.310
157.706     75.298    38.680
160.000     75.283    37.031
162.327     75.258    35.431
164.688     75.231    33.878
167.084     75.203    32.362
169.514     75.175    30.869
171.980     75.146    29.389
174.481     75.112    27.933
177.019     75.072    26.537
179.594     75.032    25.276
182.206     75.006    24.117
184.856     75.002    22.996
187.545     75.020    21.828
190.273     75.049    20.524
193.041     75.078    19.101
195.849     75.096    17.595
198.697     75.101    16.074
201.587     75.106    14.576
204.520     75.110    13.018
207.494     75.105    11.410
210.512     75.087     9.787
213.574     75.052     8.157
216.681     75.001     6.584
219.833     74.935     5.081
223.030     74.857     3.761
226.274     74.792     2.656
229.565     74.751     1.641
232.905     74.729     0.683
236.292     74.743    -0.253
239.729     74.787    -1.408
243.216     74.827    -2.834
246.754     74.847    -4.425
250.343     74.839    -6.076
253.984     74.806    -7.716
257.678     74.750    -9.226
261.426     74.691   -10.581
265.229     74.648   -11.806
269.087     74.624   -13.082
273.001     74.604   -14.410
276.972     74.582   -15.789
281.000     74.550   -17.177
285.088     74.511   -18.460
289.234     74.481   -19.690
293.441     74.465   -20.918
297.709     74.458   -22.209
302.040     74.451   -23.674
306.433     74.420   -25.191
310.890     74.363   -26.605
315.412     74.315   -27.892
320.000     74.282   -29.065
324.655     74.271   -30.291
329.377     74.277   -31.620
334.168     74.289   -33.073
339.028     74.289   -34.682
343.959     74.278   -36.413
348.962     74.242   -38.188
354.038     74.178   -40.003
359.188     74.084   -41.686
364.412     73.973   -43.142
369.713     73.876   -44.335
375.090     73.816   -45.374
380.546     73.789   -46.559
386.081     73.776   -47.872
391.697     73.751   -49.296
397.394     73.737   -50.858
403.175     73.720   -52.521
409.039     73.671   -54.396
414.989     73.595   -56.364
421.025     73.448   -58.248
427.149     73.257   -59.693
433.362     73.092   -60.566
439.665     72.988   -61.149
446.060     72.973   -61.688
452.548     73.038   -62.639
459.131     73.075   -64.172
465.809     73.097   -65.760
472.584     73.117   -67.789
479.458     73.014   -69.854
486.432     72.895   -71.339
493.507     72.819   -72.709
500.686     72.739   -73.989
507.968     72.738   -75.066
515.357     72.766   -76.743
522.853     72.757   -78.769
530.458     72.691   -80.670
538.174     72.611   -82.590
546.002     72.500   -84.263
553.943     72.439   -85.264
562.001     72.502   -86.744
570.175     72.558   -89.015
578.469     72.561   -91.731
586.883     72.459   -95.163
595.419     72.228   -98.115
604.080     71.925  -100.288
612.866     71.566  -101.416
621.780     71.392  -101.499
630.824     71.361  -101.934
640.000     71.344  -102.898
649.309     71.394  -104.313
658.753     71.383  -106.317
668.335     71.322  -108.046
678.056     71.281  -109.950
687.919     71.286  -111.760
697.925     71.335  -113.979
708.077     71.385  -116.883
718.376     71.349  -120.179
728.825     71.212  -123.134
739.426     71.065  -125.839
750.181     70.897  -128.748
761.093     70.638  -131.449
772.163     70.429  -133.764
783.394     70.155  -136.334
794.789     69.805  -138.238
806.349     69.510  -139.088
818.078     69.279  -139.822
829.977     69.151  -139.930
842.050     69.227  -140.327
854.298     69.331  -142.138
866.724     69.393  -144.224
879.330     69.469  -146.612
892.120     69.467  -150.101
905.097     69.310  -153.317
918.262     69.076  -156.084
931.618     68.772  -158.026
945.169     68.556  -159.697
958.917     68.387  -161.207
972.864     68.261  -162.530
987.015     68.226  -164.419
1001.37     68.133  -166.363
1015.94     68.027  -168.019
1030.71     67.971  -170.102
1045.71     67.945  -172.031
1060.92     68.026  -174.578
1076.35     68.032  -178.116
1092.00     67.933   177.887
1107.89     67.683   174.328
1124.00     67.431   171.173
1140.35     67.174   166.860
1156.94     66.618   164.784
1173.77     66.285   164.021
1190.84     66.025   162.442
1208.16     65.706   163.010
1225.73     65.790   162.524
1243.56     65.765   160.184
1261.65     65.733   159.408
1280.00     65.946   157.069
1298.62     65.995   153.562
1317.51     66.117   150.687
1336.67     66.272   146.182
1356.11     66.146   141.572
1375.84     66.055   138.282
1395.85     65.904   134.337
1416.15     65.645   131.207
1436.75     65.558   128.190
1457.65     65.382   124.101
1478.85     65.191   120.319
1500.36     64.837   116.610
1522.19     64.399   113.755
1544.33     64.168   112.362
1566.79     63.997   110.969
1589.58     64.084   109.110
1612.70     64.351   106.393
1636.16     64.384   102.186
1659.95     64.385    97.116
1684.10     64.080    92.941
1708.60     63.824    89.945
1733.45     63.642    87.136
1758.66     63.536    84.899
1784.24     63.624    82.567
1810.19     63.705    78.969
1836.52     63.659    75.589
1863.24     63.597    71.859
1890.34     63.484    67.566
1917.83     63.411    62.262
1945.73     63.279    56.526
1974.03     63.036    50.613
2002.74     62.620    44.695
2031.87     62.180    39.635
2061.43     61.763    34.713
2091.41     61.344    28.540
2121.83     60.834    23.269
2152.69     60.424    19.357
2184.01     60.211    16.095
2215.77     59.940    11.851
2248.00     59.667     6.172
2280.70     59.140    -0.945
2313.87     58.296    -8.228
2347.53     57.480   -14.173
2381.68     56.682   -16.118
2416.32     56.174   -16.871
2451.46     56.144   -17.379
2487.12     56.105   -18.286
2523.30     56.145   -22.621
2560.00     56.288   -29.512
2597.24     56.054   -36.772
2635.01     55.312   -46.077
2673.34     54.133   -55.577
2712.23     51.928   -63.707
2751.68     48.076   -63.604
2791.70     44.129   -36.306
2832.31     46.092    -1.401
2873.50     49.350     1.975
2915.30     51.104    -6.262
2957.70     51.830   -17.220
3000.72     52.288   -28.320
3044.37     52.323   -38.319
3088.65     52.130   -46.140
3133.58     52.277   -52.260
3179.16     52.766   -58.920
3225.40     53.439   -64.890
3272.31     54.101   -70.228
3319.91     54.558   -75.889
3368.20     54.603   -79.803
3417.19     54.506   -81.444
3466.89     54.663   -82.119
3517.32     54.977   -83.304
3568.48     55.479   -85.410
3620.39     56.101   -89.403
3673.05     56.652   -94.754
3726.47     57.133  -101.154
3780.67     57.474  -108.603
3835.67     57.662  -116.122
3891.46     57.780  -123.762
3948.06     57.860  -131.792
4005.49     57.943  -139.613
4063.75     58.086  -147.552
4122.86     58.274  -155.665
4182.82     58.390  -164.078
4243.66     58.402  -172.499
4305.39     58.250   179.506
4368.01     58.049   172.576
4431.55     57.952   166.667
4496.01     58.014   161.328
4561.40     58.325   155.606
4627.75     58.759   148.189
4695.06     59.122   138.418
4763.35     59.314   126.994
4832.64     59.249   115.071
4902.93     58.931   104.206
4974.24     58.478    95.337
5046.60     58.012    88.272
5120.00     57.562    82.354
5194.47     57.188    76.760
5270.03     56.829    71.034
5346.68     56.394    66.059
5424.45     55.986    62.462
5503.35     55.756    59.773
5583.40     55.658    56.347
5664.61     55.425    51.748
5747.01     54.952    48.035
5830.60     54.623    46.467
5915.41     54.774    44.493
6001.45     55.118    40.030
6088.74     55.456    33.957
6177.30     55.813    26.070
6267.15     56.104    16.095
6358.31     56.241     4.418
6450.80     56.209    -8.001
6544.62     55.976   -19.997
6639.82     55.598   -30.685
6736.40     55.145   -39.603
6834.38     54.605   -46.595
6933.79     54.090   -52.153
7034.64     53.719   -57.044
7136.96     53.523   -61.581
7240.77     53.521   -66.432
7346.09     53.653   -72.344
7452.94     53.840   -78.986
7561.35     54.052   -86.408
7671.33     54.228   -95.357
7782.91     54.343  -105.675
7896.12     54.424  -116.923
8010.97     54.484  -128.895
8127.49     54.537  -141.136
8245.71     54.579  -153.523
8365.65     54.576  -166.315
8487.33     54.488  -179.855
8610.78     54.234   165.549
8736.03     53.731   150.443
8863.09     52.966   136.134
8992.01     51.993   123.977
9122.80     50.863   114.810
9255.50     49.495   109.435
9390.12     47.689   108.565
9526.70     45.525   112.359
9665.27     43.324   121.611
9805.86     41.790   134.700
9948.49     42.129   146.765
10093.2     44.183   154.296
10240.0     46.504   154.148
10388.9     48.311   144.563
10540.1     49.355   128.320
10693.4     49.600   109.347
10848.9     49.112    91.135
11006.7     47.992    76.728
11166.8     46.340    67.931
11329.2     44.441    65.281
11494.0     42.813    67.598
11661.2     42.161    72.155
11830.8     42.818    75.418
12002.9     44.341    73.992
12177.5     46.072    65.741
12354.6     47.549    50.364
12534.3     48.539    29.091
12716.6     49.010     4.158
12901.6     48.995   -22.394
13089.2     48.525   -49.409
13279.6     47.655   -76.172
13472.8     46.361  -102.378
13668.8     44.546  -126.139
13867.6     42.353  -143.331
14069.3     40.168  -152.156
14273.9     38.722  -154.203
14481.5     38.738  -153.085
14692.2     39.702  -155.232
14905.9     40.503  -165.873
15122.7     40.490   175.019
15342.7     39.504   153.162
15565.8     37.755   137.668
15792.2     35.782   131.843
16021.9     34.526   132.140
16255.0     34.762   134.106
16491.4     36.127   130.126
16731.3     37.509   113.639
16974.7     38.350    85.108
17221.6     38.585    48.373
17472.1     38.235     7.773
17726.2     37.402   -34.014
17984.0     36.246   -75.117
18245.6     35.048  -112.891
18511.0     34.035  -145.676
18780.2     33.392  -172.087
19053.4     33.598   167.328
19330.5     34.944   149.598
19611.7     36.807   131.430
19897.0     38.410   107.935
20186.4     39.360    74.224
20480.0     39.663    27.405
20777.9     39.577   -32.556
21080.1     39.571  -100.906
21386.7     39.951  -171.034
21697.8     40.656   123.172
22013.4     41.475    67.718
22333.6     41.978    24.514
22658.4     41.891    -9.056
22988.0     41.342   -36.344
23322.4     40.407   -60.734
23661.6     39.032   -80.301
24005.8     37.317   -98.138
24355.0     35.476  -103.445
24709.2     33.573  -103.262
25068.6     31.812  -104.860
25433.2     30.814  -100.346
25803.2     30.888  -100.753
26178.5     31.473  -109.196
26559.3     32.040  -117.326
26945.6     32.549  -115.292
27337.5     32.873  -104.830
27735.2     33.154   -95.341
28138.6     33.996   -79.065
28547.9     35.477   -66.780
28963.1     37.006   -66.779
29384.4     38.166   -68.777
29811.8     39.061   -74.948
30245.4     39.804   -81.309
30685.3     40.562   -88.600
31131.7     41.737   -98.281
31584.5     43.321  -113.227
32043.9     44.922  -133.423
32510.0     46.241  -158.750
32982.8     47.073   171.735
33462.6     47.367   141.356
33949.3     47.206   112.466
34443.1     46.674    86.251
34944.1     45.948    62.724
35452.4     45.282    40.842
35968.0     44.702    19.884
36491.2     44.154    -0.202
37022.0     43.692   -19.146
37560.5     43.485   -36.732
38106.8     43.500   -51.833
38661.1     44.083   -63.542
39223.4     44.696   -72.702
39793.9     45.275   -80.944
