Freq[Hz]     dBSPL  Phase[Deg]
5.00000     -8.390   -16.348
5.07273     -8.048   -16.450
5.14651     -7.679   -16.559
5.22137     -7.270   -16.677
5.29732     -6.844   -16.799
5.37437     -6.400   -16.927
5.45254     -5.956   -17.056
5.53185     -5.513   -17.187
5.61231     -5.069   -17.321
5.69394     -4.625   -17.456
5.77676     -4.181   -17.593
5.86079     -3.738   -17.732
5.94604     -3.294   -17.873
6.03252     -2.850   -18.017
6.12027     -2.406   -18.162
6.20929     -1.963   -18.310
6.29961     -1.519   -18.459
6.39124     -1.075   -18.611
6.48420     -0.631   -18.765
6.57851     -0.187   -18.922
6.67420      0.257   -19.080
6.77128      0.700   -19.241
6.86977      1.144   -19.404
6.96969      1.588   -19.570
7.07107      2.032   -19.738
7.17392      2.476   -19.909
7.27827      2.920   -20.082
7.38413      3.364   -20.257
7.49154      3.808   -20.435
7.60050      4.251   -20.616
7.71105      4.695   -20.799
7.82321      5.139   -20.985
7.93701      5.583   -21.174
8.05245      6.027   -21.366
8.16958      6.471   -21.560
8.28841      6.915   -21.757
8.40896      7.359   -21.957
8.53128      7.803   -22.160
8.65537      8.247   -22.366
8.78126      8.691   -22.575
8.90899      9.135   -22.787
9.03857      9.580   -23.003
9.17004     10.024   -23.221
9.30342     10.468   -23.443
9.43874     10.912   -23.667
9.57603     11.356   -23.896
9.71532     11.800   -24.127
9.85663     12.245   -24.362
10.0000     12.689   -24.600
10.1455     13.133   -24.842
10.2930     13.577   -25.088
10.4427     14.022   -25.337
10.5946     14.466   -25.590
10.7487     14.910   -25.846
10.9051     15.355   -26.106
11.0637     15.799   -26.370
11.2246     16.243   -26.638
11.3879     16.688   -26.910
11.5535     17.132   -27.186
11.7216     17.577   -27.466
11.8921     18.022   -27.751
12.0650     18.466   -28.039
12.2405     18.911   -28.332
12.4186     19.355   -28.629
12.5992     19.800   -28.930
12.7825     20.245   -29.236
12.9684     20.690   -29.547
13.1570     21.134   -29.862
13.3484     21.579   -30.182
13.5426     22.024   -30.506
13.7395     22.469   -30.836
13.9394     22.914   -31.170
14.1421     23.359   -31.509
14.3478     23.804   -31.854
14.5565     24.249   -32.203
14.7683     24.694   -32.558
14.9831     25.140   -32.918
15.2010     25.585   -33.284
15.4221     26.030   -33.655
15.6464     26.476   -34.032
15.8740     26.921   -34.414
16.1049     27.367   -34.802
16.3392     27.812   -35.196
16.5768     28.258   -35.597
16.8179     28.704   -36.003
17.0626     29.150   -36.415
17.3107     29.596   -36.834
17.5625     30.042   -37.259
17.8180     30.488   -37.690
18.0771     30.934   -38.128
18.3401     31.380   -38.573
18.6068     31.827   -39.025
18.8775     32.273   -39.484
19.1521     32.720   -39.950
19.4306     33.166   -40.423
19.7133     33.620   -40.891
20.0000     34.091   -41.339
20.2909     34.595   -41.790
20.5860     35.138   -42.310
20.8855     35.693   -43.082
21.1893     36.231   -44.177
21.4975     36.721   -45.411
21.8102     37.134   -46.545
22.1274     37.489   -47.366
22.4492     37.838   -47.735
22.7758     38.220   -47.716
23.1071     38.654   -47.584
23.4432     39.145   -47.616
23.7841     39.663   -47.921
24.1301     40.172   -48.516
24.4811     40.660   -49.335
24.8372     41.125   -50.299
25.1984     41.579   -51.314
25.5649     42.035   -52.277
25.9368     42.504   -53.186
26.3141     42.993   -54.059
26.6968     43.489   -54.968
27.0851     43.983   -55.984
27.4791     44.465   -57.077
27.8788     44.927   -58.224
28.2843     45.372   -59.399
28.6957     45.812   -60.529
29.1131     46.256   -61.608
29.5365     46.714   -62.668
29.9661     47.189   -63.728
30.4020     47.676   -64.842
30.8442     48.163   -66.035
31.2929     48.638   -67.294
31.7480     49.103   -68.607
32.2098     49.563   -69.943
32.6783     50.019   -71.256
33.1536     50.491   -72.571
33.6359     50.983   -73.951
34.1251     51.488   -75.327
34.6215     51.983   -76.864
35.1250     52.450   -78.519
35.6359     52.889   -80.014
36.1543     53.312   -81.488
36.6802     53.741   -83.000
37.2137     54.195   -84.445
37.7550     54.676   -85.962
38.3041     55.170   -87.607
38.8613     55.655   -89.325
39.4265     56.126   -91.000
40.0000     56.586   -92.632
40.5818     57.045   -94.285
41.1721     57.509   -95.991
41.7710     57.978   -97.756
42.3785     58.448   -99.590
42.9949     58.919  -101.487
43.6203     59.392  -103.391
44.2548     59.863  -105.333
44.8985     60.333  -107.317
45.5515     60.807  -109.312
46.2141     61.277  -111.372
46.8863     61.743  -113.495
47.5683     62.199  -115.638
48.2602     62.650  -117.826
48.9621     63.101  -120.072
49.6743     63.550  -122.361
50.3968     64.002  -124.726
51.1299     64.458  -127.156
51.8736     64.908  -129.627
52.6281     65.351  -132.115
53.3936     65.788  -134.596
54.1702     66.220  -137.133
54.9581     66.648  -139.785
55.7575     67.069  -142.512
56.5685     67.481  -145.343
57.3914     67.882  -148.239
58.2261     68.272  -151.124
59.0730     68.653  -154.018
59.9323     69.030  -156.943
60.8040     69.402  -159.896
61.6884     69.767  -162.911
62.5857     70.124  -165.959
63.4960     70.469  -169.079
64.4196     70.795  -172.276
65.3566     71.103  -175.511
66.3073     71.394  -178.783
67.2717     71.671   177.963
68.2502     71.939   174.759
69.2429     72.200   171.580
70.2501     72.454   168.420
71.2719     72.698   165.232
72.3086     72.928   162.000
73.3603     73.141   158.756
74.4274     73.340   155.523
75.5099     73.528   152.327
76.6083     73.705   149.169
77.7226     73.874   146.035
78.8531     74.032   142.916
80.0000     74.169   139.812
81.1636     74.289   136.729
82.3442     74.398   133.722
83.5419     74.500   130.807
84.7570     74.601   127.933
85.9899     74.703   125.103
87.2406     74.799   122.311
88.5096     74.887   119.512
89.7970     74.965   116.729
91.1031     75.033   114.001
92.4282     75.091   111.310
93.7726     75.146   108.661
95.1366     75.193   106.063
96.5204     75.233   103.505
97.9243     75.268   100.996
99.3486     75.296    98.534
100.794     75.319    96.109
102.260     75.339    93.743
103.747     75.353    91.413
105.256     75.362    89.130
106.787     75.370    86.909
108.340     75.376    84.729
109.916     75.380    82.597
111.515     75.384    80.503
113.137     75.382    78.455
114.783     75.376    76.436
116.452     75.367    74.469
118.146     75.359    72.571
119.865     75.351    70.723
121.608     75.349    68.894
123.377     75.348    67.108
125.171     75.345    65.323
126.992     75.344    63.558
128.839     75.342    61.823
130.713     75.341    60.132
132.615     75.349    58.450
134.543     75.357    56.773
136.500     75.368    55.066
138.486     75.376    53.320
140.500     75.372    51.559
142.544     75.365    49.816
144.617     75.351    48.103
146.721     75.332    46.454
148.855     75.319    44.851
151.020     75.309    43.268
153.217     75.301    41.670
155.445     75.291    40.072
157.706     75.281    38.463
160.000     75.265    36.848
162.327     75.241    35.286
164.688     75.218    33.764
167.084     75.196    32.267
169.514     75.174    30.786
171.980     75.152    29.308
174.481     75.125    27.835
177.019     75.092    26.405
179.594     75.055    25.095
182.206     75.029    23.884
184.856     75.022    22.722
187.545     75.035    21.532
190.273     75.061    20.229
193.041     75.087    18.821
195.849     75.105    17.335
198.697     75.114    15.831
201.587     75.124    14.339
204.520     75.134    12.770
207.494     75.133    11.135
210.512     75.119     9.469
213.574     75.083     7.800
216.681     75.032     6.209
219.833     74.969     4.691
223.030     74.894     3.333
226.274     74.830     2.168
229.565     74.787     1.090
232.905     74.758     0.064
236.292     74.759    -0.918
239.729     74.789    -2.059
243.216     74.819    -3.426
246.754     74.835    -4.953
250.343     74.826    -6.549
253.984     74.794    -8.121
257.678     74.746    -9.576
261.426     74.697   -10.911
265.229     74.664   -12.138
269.087     74.649   -13.457
273.001     74.631   -14.843
276.972     74.608   -16.270
281.000     74.571   -17.697
285.088     74.525   -18.983
289.234     74.492   -20.193
293.441     74.473   -21.397
297.709     74.463   -22.640
302.040     74.458   -24.044
306.433     74.431   -25.472
310.890     74.395   -26.819
315.412     74.370   -28.136
320.000     74.355   -29.410
324.655     74.352   -30.795
329.377     74.350   -32.286
334.168     74.342   -33.821
339.028     74.324   -35.411
343.959     74.303   -37.043
348.962     74.274   -38.715
354.038     74.224   -40.490
359.188     74.143   -42.193
364.412     74.044   -43.699
369.713     73.955   -45.003
375.090     73.889   -46.164
380.546     73.850   -47.395
386.081     73.829   -48.717
391.697     73.793   -50.162
397.394     73.765   -51.668
403.175     73.739   -53.221
409.039     73.693   -54.987
414.989     73.622   -56.864
421.025     73.488   -58.631
427.149     73.320   -60.052
433.362     73.169   -60.957
439.665     73.077   -61.575
446.060     73.068   -62.218
452.548     73.117   -63.207
459.131     73.144   -64.627
465.809     73.169   -66.043
472.584     73.207   -67.819
479.458     73.162   -69.702
486.432     73.117   -71.272
493.507     73.091   -72.999
500.686     73.032   -74.746
507.968     73.010   -76.269
515.357     72.987   -78.246
522.853     72.929   -80.282
530.458     72.824   -82.040
538.174     72.731   -83.688
546.002     72.639   -85.119
553.943     72.599   -86.020
562.001     72.681   -87.388
570.175     72.784   -89.603
578.469     72.818   -92.478
586.883     72.734   -95.987
595.419     72.527   -99.083
604.080     72.238  -101.397
612.866     71.898  -102.640
621.780     71.746  -102.996
630.824     71.710  -103.760
640.000     71.681  -105.018
649.309     71.700  -106.724
658.753     71.632  -108.817
668.335     71.509  -110.418
678.056     71.442  -111.882
687.919     71.451  -113.341
697.925     71.513  -115.279
708.077     71.607  -117.876
718.376     71.629  -121.141
728.825     71.529  -124.317
739.426     71.391  -127.211
750.181     71.215  -130.238
761.093     70.945  -132.914
772.163     70.724  -135.093
783.394     70.469  -137.359
794.789     70.173  -139.043
806.349     69.944  -139.876
818.078     69.780  -140.720
829.977     69.679  -141.069
842.050     69.767  -141.552
854.298     69.901  -143.327
866.724     69.989  -145.537
879.330     70.095  -147.946
892.120     70.132  -151.513
905.097     70.017  -154.953
918.262     69.824  -157.988
931.618     69.539  -160.304
945.169     69.318  -162.300
958.917     69.156  -163.863
972.864     69.030  -165.308
987.015     68.996  -167.270
1001.37     68.911  -169.227
1015.94     68.816  -171.051
1030.71     68.756  -173.249
1045.71     68.692  -175.127
1060.92     68.769  -177.463
1076.35     68.800   179.294
1092.00     68.739   175.586
1107.89     68.601   172.034
1124.00     68.438   168.588
1140.35     68.238   164.044
1156.94     67.733   161.366
1173.77     67.389   160.117
1190.84     67.113   158.442
1208.16     66.800   158.653
1225.73     66.892   158.022
1243.56     66.912   155.508
1261.65     66.878   154.133
1280.00     67.057   151.585
1298.62     67.093   148.183
1317.51     67.210   145.469
1336.67     67.396   141.430
1356.11     67.382   136.995
1375.84     67.377   133.071
1395.85     67.231   128.476
1416.15     66.938   124.639
1436.75     66.766   121.414
1457.65     66.509   117.437
1478.85     66.293   113.975
1500.36     65.972   110.706
1522.19     65.564   107.857
1544.33     65.331   107.291
1566.79     65.193   106.892
1589.58     65.349   106.015
1612.70     65.713   104.685
1636.16     66.012   100.966
1659.95     66.274    95.505
1684.10     66.219    89.704
1708.60     66.086    84.913
1733.45     65.920    80.643
1758.66     65.709    76.632
1784.24     65.521    73.822
1810.19     65.376    70.303
1836.52     65.188    67.099
1863.24     64.951    64.526
1890.34     64.903    61.538
1917.83     65.069    57.963
1945.73     65.291    53.276
1974.03     65.540    47.658
2002.74     65.625    40.875
2031.87     65.570    33.526
2061.43     65.378    25.936
2091.41     65.042    17.608
2121.83     64.504    10.212
2152.69     63.864     5.001
2184.01     63.381     1.375
2215.77     63.021    -2.145
2248.00     62.829    -7.017
2280.70     62.666   -13.688
2313.87     62.336   -21.258
2347.53     61.940   -28.819
2381.68     61.353   -34.915
2416.32     60.697   -39.723
2451.46     60.301   -42.920
2487.12     60.009   -45.876
2523.30     59.900   -50.576
2560.00     59.938   -55.460
2597.24     59.961   -59.630
2635.01     59.952   -64.944
2673.34     60.003   -70.591
2712.23     59.988   -77.475
2751.68     59.738   -85.122
2791.70     59.347   -93.563
2832.31     58.781  -102.588
2873.50     57.892  -110.650
2915.30     57.014  -117.660
2957.70     56.202  -123.990
3000.72     55.464  -127.716
3044.37     55.062  -130.365
3088.65     54.879  -132.697
3133.58     54.866  -134.915
3179.16     55.077  -138.829
3225.40     54.924  -145.521
3272.31     54.380  -153.075
3319.91     53.284  -160.760
3368.20     51.769  -167.971
3417.19     50.119  -172.798
3466.89     48.466  -174.462
3517.32     47.770  -174.159
3568.48     48.154  -174.700
3620.39     49.376  -176.335
3673.05     50.346  -179.205
3726.47     50.733   179.887
3780.67     50.975   177.310
3835.67     51.011   172.853
3891.46     51.186   165.588
3948.06     51.414   152.685
4005.49     51.332   139.576
4063.75     51.157   127.286
4122.86     50.724   113.845
4182.82     49.896    98.409
4243.66     48.107    74.586
4305.39     44.043    35.059
4368.01     38.258   -50.640
4431.55     43.466  -140.202
4496.01     47.693   178.867
4561.40     49.866   152.909
4627.75     51.352   134.157
4695.06     52.466   118.279
4763.35     53.230   105.035
4832.64     53.655    93.421
4902.93     53.742    82.714
4974.24     53.597    73.897
5046.60     53.370    66.752
5120.00     53.148    60.565
5194.47     52.992    54.959
5270.03     52.894    49.755
5346.68     52.790    43.962
5424.45     52.557    37.724
5503.35     52.173    31.438
5583.40     51.561    25.193
5664.61     50.821    20.246
5747.01     50.032    17.288
5830.60     49.334    16.583
5915.41     49.148    17.553
6001.45     49.645    18.060
6088.74     50.509    16.099
6177.30     51.412    10.754
6267.15     52.183     2.322
6358.31     52.721    -8.322
6450.80     53.039   -19.928
6544.62     53.110   -31.629
6639.82     52.953   -42.772
6736.40     52.635   -52.432
6834.38     52.223   -60.104
6933.79     51.956   -66.277
7034.64     52.041   -72.465
7136.96     52.466   -79.657
7240.77     53.075   -88.343
7346.09     53.621   -98.570
7452.94     53.911  -108.808
7561.35     53.966  -117.865
7671.33     53.904  -126.125
7782.91     53.800  -134.289
7896.12     53.731  -142.856
8010.97     53.743  -152.129
8127.49     53.831  -162.209
8245.71     53.988  -173.013
8365.65     54.234   175.591
8487.33     54.501   163.404
8610.78     54.642   150.354
8736.03     54.555   137.051
8863.09     54.181   124.210
8992.01     53.552   112.453
9122.80     52.824   101.952
9255.50     52.145    92.399
9390.12     51.593    83.313
9526.70     51.210    73.789
9665.27     50.945    63.240
9805.86     50.719    51.475
9948.49     50.507    37.923
10093.2     50.185    22.399
10240.0     49.495     6.570
10388.9     48.329    -7.598
10540.1     46.704   -18.766
10693.4     44.676   -25.042
10848.9     42.609   -26.249
11006.7     41.114   -24.597
11166.8     40.510   -23.004
11329.2     40.674   -25.146
11494.0     41.199   -33.994
11661.2     41.733   -51.460
11830.8     42.032   -78.600
12002.9     42.099  -114.812
12177.5     42.220  -159.362
12354.6     42.700   149.534
12534.3     43.600    96.472
12716.6     44.800    46.066
12901.6     45.907     1.517
13089.2     46.540   -34.492
13279.6     46.664   -62.154
13472.8     46.273   -84.071
13668.8     45.366  -101.046
13867.6     44.270  -112.838
14069.3     43.351  -119.825
14273.9     42.890  -123.247
14481.5     43.118  -126.165
14692.2     43.831  -131.695
14905.9     44.615  -141.831
15122.7     45.206  -157.235
15342.7     45.490  -175.830
15565.8     45.486   165.005
15792.2     45.301   146.881
16021.9     45.007   130.727
16255.0     44.650   116.210
16491.4     44.324   102.710
16731.3     44.079    89.430
16974.7     43.957    75.175
17221.6     43.966    58.983
17472.1     43.931    40.191
17726.2     43.559    19.349
17984.0     42.756    -1.630
18245.6     41.686   -20.126
18511.0     40.551   -34.645
18780.2     39.628   -46.012
19053.4     39.154   -54.884
19330.5     38.865   -62.469
19611.7     38.471   -70.472
19897.0     38.107   -78.156
20186.4     38.274   -85.391
20480.0     39.367   -94.421
20777.9     40.929  -108.192
21080.1     42.203  -128.968
21386.7     42.828  -155.777
21697.8     42.564   175.253
22013.4     41.313   151.426
22333.6     39.254   143.330
22658.4     36.754   156.518
22988.0     34.539  -173.917
23322.4     33.395  -140.034
23661.6     33.383  -110.347
24005.8     33.820   -96.203
24355.0     34.097   -90.633
24709.2     34.131   -98.818
25068.6     33.990  -122.188
25433.2     33.867  -149.600
25803.2     34.012   170.495
26178.5     34.353   115.115
26559.3     34.790    56.452
26945.6     35.413    -7.158
27337.5     36.397   -70.971
27735.2     37.547  -134.771
28138.6     38.459   167.858
28547.9     39.064   121.687
28963.1     39.445    87.088
29384.4     39.857    63.674
29811.8     40.774    47.871
30245.4     42.332    33.008
30685.3     44.092    15.099
31131.7     45.516    -6.126
31584.5     46.461   -30.281
32043.9     46.926   -56.076
32510.0     46.917   -81.130
32982.8     46.546  -104.697
33462.6     45.935  -127.688
33949.3     45.155  -150.538
34443.1     44.182  -173.562
34944.1     43.078   163.422
35452.4     42.147   140.820
35968.0     41.419   116.652
36491.2     40.576    89.568
37022.0     39.450    60.684
37560.5     38.058    33.150
38106.8     36.369    12.386
38661.1     35.018     4.319
39223.4     34.298     1.562
39793.9     34.236     4.214
