Freq[Hz]     dBSPL  Phase[Deg]
5.00000     -8.111   -17.660
5.07273     -7.768   -17.757
5.14651     -7.398   -17.859
5.22137     -6.987   -17.967
5.29732     -6.559   -18.079
5.37437     -6.113   -18.194
5.45254     -5.667   -18.312
5.53185     -5.222   -18.431
5.61231     -4.776   -18.552
5.69394     -4.330   -18.675
5.77676     -3.884   -18.799
5.86079     -3.438   -18.926
5.94604     -2.992   -19.054
6.03252     -2.546   -19.184
6.12027     -2.100   -19.316
6.20929     -1.654   -19.450
6.29961     -1.209   -19.585
6.39124     -0.763   -19.723
6.48420     -0.317   -19.863
6.57851      0.129   -20.005
6.67420      0.575   -20.149
6.77128      1.021   -20.295
6.86977      1.467   -20.443
6.96969      1.913   -20.593
7.07107      2.359   -20.746
7.17392      2.805   -20.900
7.27827      3.251   -21.057
7.38413      3.697   -21.217
7.49154      4.143   -21.378
7.60050      4.589   -21.542
7.71105      5.035   -21.709
7.82321      5.481   -21.878
7.93701      5.927   -22.049
8.05245      6.373   -22.223
8.16958      6.820   -22.399
8.28841      7.266   -22.578
8.40896      7.712   -22.760
8.53128      8.158   -22.944
8.65537      8.604   -23.131
8.78126      9.050   -23.321
8.90899      9.497   -23.513
9.03857      9.943   -23.708
9.17004     10.389   -23.906
9.30342     10.835   -24.108
9.43874     11.281   -24.312
9.57603     11.728   -24.519
9.71532     12.174   -24.729
9.85663     12.620   -24.942
10.0000     13.067   -25.158
10.1455     13.513   -25.378
10.2930     13.959   -25.601
10.4427     14.406   -25.827
10.5946     14.852   -26.056
10.7487     15.299   -26.289
10.9051     15.745   -26.525
11.0637     16.192   -26.765
11.2246     16.638   -27.008
11.3879     17.085   -27.255
11.5535     17.532   -27.505
11.7216     17.978   -27.760
11.8921     18.425   -28.018
12.0650     18.872   -28.279
12.2405     19.318   -28.545
12.4186     19.765   -28.815
12.5992     20.212   -29.088
12.7825     20.659   -29.366
12.9684     21.106   -29.648
13.1570     21.552   -29.934
13.3484     21.999   -30.225
13.5426     22.446   -30.519
13.7395     22.893   -30.818
13.9394     23.341   -31.122
14.1421     23.788   -31.430
14.3478     24.235   -31.743
14.5565     24.682   -32.061
14.7683     25.129   -32.383
14.9831     25.577   -32.710
15.2010     26.024   -33.042
15.4221     26.472   -33.379
15.6464     26.919   -33.721
15.8740     27.367   -34.069
16.1049     27.815   -34.422
16.3392     28.262   -34.780
16.5768     28.710   -35.143
16.8179     29.158   -35.512
17.0626     29.606   -35.887
17.3107     30.054   -36.267
17.5625     30.502   -36.654
17.8180     30.950   -37.046
18.0771     31.399   -37.444
18.3401     31.847   -37.849
18.6068     32.296   -38.260
18.8775     32.744   -38.677
19.1521     33.193   -39.100
19.4306     33.642   -39.531
19.7133     34.098   -39.954
20.0000     34.570   -40.351
20.2909     35.074   -40.739
20.5860     35.614   -41.185
20.8855     36.164   -41.875
21.1893     36.697   -42.880
21.4975     37.183   -44.019
21.8102     37.599   -45.059
22.1274     37.961   -45.794
22.4492     38.319   -46.107
22.7758     38.709   -46.070
23.1071     39.149   -45.954
23.4432     39.641   -46.019
23.7841     40.156   -46.340
24.1301     40.663   -46.900
24.4811     41.150   -47.643
24.8372     41.616   -48.510
25.1984     42.073   -49.431
25.5649     42.531   -50.335
25.9368     43.001   -51.217
26.3141     43.488   -52.080
26.6968     43.981   -52.977
27.0851     44.470   -53.962
27.4791     44.949   -54.999
27.8788     45.409   -56.067
28.2843     45.856   -57.149
28.6957     46.301   -58.187
29.1131     46.751   -59.185
29.5365     47.214   -60.184
29.9661     47.693   -61.200
30.4020     48.181   -62.282
30.8442     48.669   -63.446
31.2929     49.146   -64.664
31.7480     49.613   -65.928
32.2098     50.074   -67.208
32.6783     50.534   -68.454
33.1536     51.007   -69.724
33.6359     51.496   -71.087
34.1251     51.996   -72.468
34.6215     52.481   -73.992
35.1250     52.934   -75.585
35.6359     53.366   -76.964
36.1543     53.789   -78.268
36.6802     54.223   -79.593
37.2137     54.686   -80.894
37.7550     55.177   -82.320
38.3041     55.678   -83.914
38.8613     56.167   -85.594
39.4265     56.641   -87.237
40.0000     57.105   -88.828
40.5818     57.566   -90.431
41.1721     58.030   -92.090
41.7710     58.496   -93.796
42.3785     58.962   -95.546
42.9949     59.432   -97.336
43.6203     59.907   -99.132
44.2548     60.384  -100.971
44.8985     60.861  -102.873
45.5515     61.340  -104.815
46.2141     61.813  -106.831
46.8863     62.277  -108.901
47.5683     62.732  -110.977
48.2602     63.183  -113.089
48.9621     63.636  -115.255
49.6743     64.088  -117.471
50.3968     64.540  -119.769
51.1299     64.994  -122.135
51.8736     65.442  -124.538
52.6281     65.881  -126.952
53.3936     66.314  -129.349
54.1702     66.744  -131.787
54.9581     67.168  -134.320
55.7575     67.588  -136.926
56.5685     68.001  -139.632
57.3914     68.406  -142.409
58.2261     68.800  -145.192
59.0730     69.186  -147.993
59.9323     69.563  -150.832
60.8040     69.935  -153.703
61.6884     70.299  -156.633
62.5857     70.654  -159.590
63.4960     70.996  -162.601
64.4196     71.321  -165.673
65.3566     71.629  -168.772
66.3073     71.922  -171.903
67.2717     72.202  -175.028
68.2502     72.474  -178.109
69.2429     72.741   178.824
70.2501     73.000   175.753
71.2719     73.248   172.640
72.3086     73.479   169.476
73.3603     73.690   166.305
74.4274     73.885   163.157
75.5099     74.068   160.064
76.6083     74.241   157.031
77.7226     74.406   154.033
78.8531     74.562   151.059
80.0000     74.701   148.110
81.1636     74.825   145.190
82.3442     74.940   142.328
83.5419     75.048   139.523
84.7570     75.152   136.740
85.9899     75.252   133.986
87.2406     75.343   131.274
88.5096     75.422   128.589
89.7970     75.492   125.949
91.1031     75.554   123.374
92.4282     75.608   120.854
93.7726     75.659   118.380
95.1366     75.704   115.952
96.5204     75.743   113.567
97.9243     75.777   111.230
99.3486     75.804   108.941
100.794     75.825   106.699
102.260     75.844   104.511
103.747     75.857   102.376
105.256     75.867   100.292
106.787     75.876    98.256
108.340     75.886    96.248
109.916     75.893    94.278
111.515     75.896    92.334
113.137     75.894    90.442
114.783     75.887    88.605
116.452     75.877    86.822
118.146     75.868    85.086
119.865     75.858    83.403
121.608     75.849    81.732
123.377     75.838    80.107
125.171     75.823    78.535
126.992     75.810    77.013
128.839     75.800    75.535
130.713     75.796    74.112
132.615     75.798    72.675
134.543     75.804    71.258
136.500     75.814    69.816
138.486     75.820    68.324
140.500     75.816    66.837
142.544     75.807    65.352
144.617     75.788    63.904
146.721     75.769    62.536
148.855     75.753    61.200
151.020     75.741    59.900
153.217     75.732    58.589
155.445     75.720    57.267
157.706     75.706    55.940
160.000     75.682    54.619
162.327     75.652    53.378
164.688     75.622    52.206
167.084     75.594    51.080
169.514     75.571    50.008
171.980     75.554    48.961
174.481     75.544    47.913
177.019     75.536    46.858
179.594     75.531    45.818
182.206     75.531    44.762
184.856     75.532    43.680
187.545     75.533    42.565
190.273     75.526    41.420
193.041     75.513    40.283
195.849     75.492    39.175
198.697     75.466    38.127
201.587     75.444    37.128
204.520     75.422    36.115
207.494     75.393    35.139
210.512     75.365    34.225
213.574     75.336    33.394
216.681     75.317    32.642
219.833     75.315    31.930
223.030     75.333    31.162
226.274     75.361    30.221
229.565     75.377    29.139
232.905     75.372    28.028
236.292     75.357    26.941
239.729     75.328    25.903
243.216     75.294    24.948
246.754     75.261    24.058
250.343     75.228    23.177
253.984     75.187    22.333
257.678     75.147    21.645
261.426     75.127    20.993
265.229     75.121    20.318
269.087     75.124    19.575
273.001     75.130    18.659
276.972     75.104    17.695
281.000     75.064    16.873
285.088     75.029    16.169
289.234     75.007    15.570
293.441     75.010    14.906
297.709     75.018    14.092
302.040     75.009    13.173
306.433     74.972    12.241
310.890     74.912    11.543
315.412     74.866    11.060
320.000     74.850    10.686
324.655     74.874    10.255
329.377     74.915     9.584
334.168     74.950     8.693
339.028     74.961     7.671
343.959     74.925     6.613
348.962     74.867     5.835
354.038     74.822     5.242
359.188     74.783     4.678
364.412     74.763     4.317
369.713     74.800     3.864
375.090     74.842     3.050
380.546     74.852     2.160
386.081     74.857     1.222
391.697     74.842     0.263
397.394     74.800    -0.745
403.175     74.724    -1.677
409.039     74.634    -2.199
414.989     74.571    -2.616
421.025     74.531    -2.783
427.149     74.544    -2.879
433.362     74.600    -3.251
439.665     74.651    -3.936
446.060     74.683    -4.934
452.548     74.655    -6.047
459.131     74.580    -6.852
465.809     74.517    -7.349
472.584     74.480    -7.564
479.458     74.505    -7.725
486.432     74.579    -8.134
493.507     74.640    -8.889
500.686     74.687    -9.729
507.968     74.723   -10.805
515.357     74.703   -12.106
522.853     74.617   -13.098
530.458     74.550   -13.800
538.174     74.474   -14.301
546.002     74.441   -14.540
553.943     74.454   -15.036
562.001     74.429   -15.640
570.175     74.434   -15.966
578.469     74.438   -16.680
586.883     74.393   -17.125
595.419     74.408   -17.199
604.080     74.459   -17.585
612.866     74.536   -18.202
621.780     74.607   -19.068
630.824     74.638   -20.177
640.000     74.643   -21.179
649.309     74.642   -22.024
658.753     74.657   -22.965
668.335     74.632   -24.045
678.056     74.622   -24.879
687.919     74.590   -25.889
697.925     74.501   -26.533
708.077     74.486   -26.599
718.376     74.546   -26.881
728.825     74.600   -27.636
739.426     74.661   -28.523
750.181     74.692   -29.475
761.093     74.692   -30.676
772.163     74.650   -31.426
783.394     74.661   -31.865
794.789     74.684   -32.748
806.349     74.703   -33.444
818.078     74.783   -34.242
829.977     74.842   -35.513
842.050     74.882   -36.616
854.298     74.946   -37.732
866.724     74.967   -39.114
879.330     74.966   -40.564
892.120     74.960   -41.800
905.097     74.952   -43.037
918.262     74.958   -44.378
931.618     74.948   -45.675
945.169     74.949   -46.933
958.917     74.938   -48.255
972.864     74.948   -49.608
987.015     74.959   -51.133
1001.37     74.962   -52.736
1015.94     74.967   -54.500
1030.71     74.944   -56.346
1045.71     74.847   -58.027
1060.92     74.765   -59.347
1076.35     74.701   -60.954
1092.00     74.590   -62.580
1107.89     74.464   -64.112
1124.00     74.379   -65.624
1140.35     74.275   -67.565
1156.94     73.938   -68.832
1173.77     73.730   -68.544
1190.84     73.742   -68.261
1208.16     73.761   -68.825
1225.73     73.846   -69.638
1243.56     73.911   -71.296
1261.65     73.848   -72.863
1280.00     73.849   -74.066
1298.62     73.813   -75.396
1317.51     73.810   -76.421
1336.67     73.904   -77.776
1356.11     73.914   -79.746
1375.84     73.891   -81.558
1395.85     73.851   -83.525
1416.15     73.717   -85.294
1436.75     73.616   -86.672
1457.65     73.528   -88.028
1478.85     73.454   -89.275
1500.36     73.402   -90.608
1522.19     73.351   -91.784
1544.33     73.318   -92.733
1566.79     73.390   -93.910
1589.58     73.484   -95.200
1612.70     73.593   -96.915
1636.16     73.692   -99.258
1659.95     73.756  -101.561
1684.10     73.762  -104.069
1708.60     73.794  -106.800
1733.45     73.787  -109.389
1758.66     73.755  -112.074
1784.24     73.700  -114.936
1810.19     73.575  -117.568
1836.52     73.413  -120.002
1863.24     73.258  -122.491
1890.34     73.063  -124.744
1917.83     72.965  -126.709
1945.73     72.914  -128.845
1974.03     72.836  -131.025
2002.74     72.777  -132.757
2031.87     72.798  -134.326
2061.43     72.865  -136.891
2091.41     72.853  -140.196
2121.83     72.722  -143.500
2152.69     72.536  -146.307
2184.01     72.345  -148.594
2215.77     72.161  -150.611
2248.00     72.011  -152.308
2280.70     71.939  -153.716
2313.87     71.972  -155.459
2347.53     72.075  -157.549
2381.68     72.192  -160.000
2416.32     72.270  -162.822
2451.46     72.314  -165.591
2487.12     72.290  -168.165
2523.30     72.264  -170.385
2560.00     72.284  -172.620
2597.24     72.307  -174.996
2635.01     72.341  -177.531
2673.34     72.392   179.617
2712.23     72.432   176.666
2751.68     72.450   173.581
2791.70     72.449   170.389
2832.31     72.432   167.306
2873.50     72.379   164.391
2915.30     72.348   161.829
2957.70     72.367   159.435
3000.72     72.404   157.173
3044.37     72.484   154.928
3088.65     72.580   152.303
3133.58     72.626   149.782
3179.16     72.763   147.611
3225.40     72.964   144.433
3272.31     73.055   141.108
3319.91     73.128   138.155
3368.20     73.216   135.346
3417.19     73.310   132.686
3466.89     73.452   129.851
3517.32     73.600   126.702
3568.48     73.723   123.299
3620.39     73.815   119.602
3673.05     73.834   115.926
3726.47     73.802   112.475
3780.67     73.730   109.404
3835.67     73.668   106.834
3891.46     73.668   104.536
3948.06     73.735   102.225
4005.49     73.847    99.567
4063.75     73.946    96.513
4122.86     73.990    93.250
4182.82     73.979    89.969
4243.66     73.924    86.898
4305.39     73.856    84.123
4368.01     73.801    81.535
4431.55     73.760    79.013
4496.01     73.725    76.514
4561.40     73.701    74.016
4627.75     73.669    71.351
4695.06     73.615    68.582
4763.35     73.525    65.767
4832.64     73.383    63.005
4902.93     73.195    60.416
4974.24     72.959    58.172
5046.60     72.688    56.505
5120.00     72.427    55.553
5194.47     72.228    55.180
5270.03     72.123    55.060
5346.68     72.116    54.914
5424.45     72.209    54.529
5503.35     72.379    53.614
5583.40     72.568    52.021
5664.61     72.701    49.899
5747.01     72.753    47.586
5830.60     72.741    45.453
5915.41     72.693    43.587
6001.45     72.632    41.844
6088.74     72.555    40.139
6177.30     72.443    38.522
6267.15     72.290    37.267
6358.31     72.131    36.661
6450.80     72.027    36.589
6544.62     72.013    36.598
6639.82     72.055    36.293
6736.40     72.103    35.698
6834.38     72.158    34.999
6933.79     72.229    34.217
7034.64     72.325    33.412
7136.96     72.475    32.513
7240.77     72.667    31.131
7346.09     72.831    29.266
7452.94     72.958    27.255
7561.35     73.061    25.005
7671.33     73.096    22.529
7782.91     73.062    20.269
7896.12     73.018    18.284
8010.97     72.959    16.368
8127.49     72.864    14.639
8245.71     72.773    13.115
8365.65     72.680    11.557
8487.33     72.542    10.012
8610.78     72.371     8.764
8736.03     72.218     7.778
8863.09     72.098     6.830
8992.01     72.004     5.793
9122.80     71.936     4.580
9255.50     71.883     3.112
9390.12     71.807     1.480
9526.70     71.687    -0.115
9665.27     71.523    -1.463
9805.86     71.345    -2.332
9948.49     71.216    -2.881
10093.2     71.140    -3.503
10240.0     71.099    -4.287
10388.9     71.091    -5.377
10540.1     71.080    -6.814
10693.4     71.053    -8.419
10848.9     71.011   -10.281
11006.7     70.920   -12.368
11166.8     70.765   -14.506
11329.2     70.547   -16.577
11494.0     70.277   -18.426
11661.2     69.967   -20.014
11830.8     69.627   -21.224
12002.9     69.288   -22.054
12177.5     68.948   -22.657
12354.6     68.608   -22.934
12534.3     68.303   -22.946
12716.6     68.035   -22.834
12901.6     67.826   -22.596
13089.2     67.680   -22.503
13279.6     67.549   -22.665
13472.8     67.417   -23.005
13668.8     67.261   -23.528
13867.6     67.068   -23.955
14069.3     66.873   -24.186
14273.9     66.696   -24.300
14481.5     66.544   -24.330
14692.2     66.415   -24.492
14905.9     66.291   -24.826
15122.7     66.152   -25.299
15342.7     65.983   -25.896
15565.8     65.793   -26.469
15792.2     65.587   -26.898
16021.9     65.376   -27.072
16255.0     65.197   -26.981
16491.4     65.072   -26.761
16731.3     64.991   -26.674
16974.7     64.926   -26.923
17221.6     64.838   -27.453
17472.1     64.698   -28.058
17726.2     64.496   -28.449
17984.0     64.245   -28.518
18245.6     63.982   -28.304
18511.0     63.725   -27.889
18780.2     63.472   -27.399
19053.4     63.242   -26.906
19330.5     63.043   -26.415
19611.7     62.879   -25.912
19897.0     62.769   -25.373
20186.4     62.719   -24.720
20480.0     62.719   -23.893
20777.9     62.776   -22.926
21080.1     62.895   -22.062
21386.7     63.059   -21.689
21697.8     63.243   -21.971
22013.4     63.408   -22.914
22333.6     63.526   -24.437
22658.4     63.566   -26.246
22988.0     63.517   -28.094
23322.4     63.407   -29.794
23661.6     63.249   -31.242
24005.8     63.060   -32.501
24355.0     62.866   -33.640
24709.2     62.661   -34.789
25068.6     62.435   -36.103
25433.2     62.175   -37.517
25803.2     61.843   -38.849
26178.5     61.417   -39.983
26559.3     60.911   -40.791
26945.6     60.350   -41.093
27337.5     59.760   -40.682
27735.2     59.181   -39.248
28138.6     58.672   -36.601
28547.9     58.282   -32.930
28963.1     58.059   -28.756
29384.4     58.031   -24.826
29811.8     58.156   -21.666
30245.4     58.376   -19.401
30685.3     58.638   -18.049
31131.7     58.885   -17.330
31584.5     59.115   -16.832
32043.9     59.362   -16.406
32510.0     59.674   -15.980
32982.8     60.104   -15.726
33462.6     60.647   -16.142
33949.3     61.241   -17.726
34443.1     61.797   -20.793
34944.1     62.214   -25.237
35452.4     62.436   -30.495
35968.0     62.483   -35.938
36491.2     62.397   -41.281
37022.0     62.210   -46.501
37560.5     61.942   -51.711
38106.8     61.643   -56.869
38661.1     61.293   -62.280
39223.4     60.951   -67.474
39793.9     60.617   -72.364
