Freq[Hz]     dBSPL  Phase[Deg]
5.00000     -8.371   -16.397
5.07273     -8.029   -16.499
5.14651     -7.660   -16.607
5.22137     -7.250   -16.724
5.29732     -6.825   -16.846
5.37437     -6.381   -16.973
5.45254     -5.938   -17.103
5.53185     -5.494   -17.234
5.61231     -5.050   -17.366
5.69394     -4.607   -17.501
5.77676     -4.163   -17.638
5.86079     -3.719   -17.777
5.94604     -3.276   -17.918
6.03252     -2.832   -18.061
6.12027     -2.388   -18.206
6.20929     -1.944   -18.353
6.29961     -1.501   -18.502
6.39124     -1.057   -18.653
6.48420     -0.613   -18.807
6.57851     -0.169   -18.963
6.67420      0.274   -19.121
6.77128      0.718   -19.281
6.86977      1.162   -19.444
6.96969      1.606   -19.609
7.07107      2.049   -19.777
7.17392      2.493   -19.947
7.27827      2.937   -20.120
7.38413      3.381   -20.295
7.49154      3.825   -20.472
7.60050      4.269   -20.652
7.71105      4.712   -20.835
7.82321      5.156   -21.021
7.93701      5.600   -21.209
8.05245      6.044   -21.400
8.16958      6.488   -21.594
8.28841      6.932   -21.791
8.40896      7.376   -21.990
8.53128      7.820   -22.193
8.65537      8.264   -22.398
8.78126      8.708   -22.606
8.90899      9.152   -22.818
9.03857      9.596   -23.032
9.17004     10.040   -23.250
9.30342     10.484   -23.471
9.43874     10.928   -23.695
9.57603     11.372   -23.923
9.71532     11.816   -24.154
9.85663     12.260   -24.388
10.0000     12.704   -24.626
10.1455     13.149   -24.867
10.2930     13.593   -25.112
10.4427     14.037   -25.360
10.5946     14.481   -25.612
10.7487     14.925   -25.868
10.9051     15.370   -26.127
11.0637     15.814   -26.391
11.2246     16.258   -26.658
11.3879     16.703   -26.929
11.5535     17.147   -27.204
11.7216     17.592   -27.484
11.8921     18.036   -27.767
12.0650     18.481   -28.055
12.2405     18.925   -28.346
12.4186     19.370   -28.643
12.5992     19.814   -28.943
12.7825     20.259   -29.248
12.9684     20.704   -29.558
13.1570     21.148   -29.872
13.3484     21.593   -30.191
13.5426     22.038   -30.515
13.7395     22.483   -30.843
13.9394     22.928   -31.177
14.1421     23.373   -31.515
14.3478     23.818   -31.859
14.5565     24.263   -32.207
14.7683     24.708   -32.561
14.9831     25.153   -32.920
15.2010     25.598   -33.285
15.4221     26.044   -33.655
15.6464     26.489   -34.031
15.8740     26.934   -34.412
16.1049     27.380   -34.799
16.3392     27.825   -35.192
16.5768     28.271   -35.591
16.8179     28.717   -35.996
17.0626     29.162   -36.407
17.3107     29.608   -36.825
17.5625     30.054   -37.248
17.8180     30.500   -37.679
18.0771     30.946   -38.116
18.3401     31.393   -38.559
18.6068     31.839   -39.010
18.8775     32.285   -39.467
19.1521     32.732   -39.932
19.4306     33.178   -40.404
19.7133     33.632   -40.871
20.0000     34.103   -41.318
20.2909     34.607   -41.769
20.5860     35.149   -42.290
20.8855     35.703   -43.064
21.1893     36.241   -44.160
21.4975     36.730   -45.395
21.8102     37.143   -46.527
22.1274     37.497   -47.344
22.4492     37.846   -47.710
22.7758     38.228   -47.687
23.1071     38.662   -47.553
23.4432     39.154   -47.583
23.7841     39.672   -47.888
24.1301     40.181   -48.483
24.4811     40.669   -49.302
24.8372     41.134   -50.266
25.1984     41.588   -51.280
25.5649     42.044   -52.242
25.9368     42.513   -53.150
26.3141     43.001   -54.022
26.6968     43.498   -54.931
27.0851     43.992   -55.946
27.4791     44.474   -57.039
27.8788     44.936   -58.187
28.2843     45.381   -59.361
28.6957     45.821   -60.491
29.1131     46.264   -61.569
29.5365     46.722   -62.628
29.9661     47.197   -63.687
30.4020     47.683   -64.798
30.8442     48.171   -65.989
31.2929     48.646   -67.246
31.7480     49.111   -68.557
32.2098     49.571   -69.891
32.6783     50.027   -71.203
33.1536     50.499   -72.518
33.6359     50.991   -73.897
34.1251     51.496   -75.271
34.6215     51.990   -76.805
35.1250     52.457   -78.457
35.6359     52.896   -79.949
36.1543     53.320   -81.420
36.6802     53.749   -82.929
37.2137     54.203   -84.372
37.7550     54.684   -85.888
38.3041     55.179   -87.533
38.8613     55.664   -89.250
39.4265     56.135   -90.925
40.0000     56.595   -92.557
40.5818     57.054   -94.209
41.1721     57.519   -95.914
41.7710     57.988   -97.679
42.3785     58.459   -99.514
42.9949     58.930  -101.414
43.6203     59.402  -103.320
44.2548     59.873  -105.264
44.8985     60.343  -107.248
45.5515     60.815  -109.242
46.2141     61.286  -111.299
46.8863     61.751  -113.418
47.5683     62.207  -115.559
48.2602     62.658  -117.745
48.9621     63.109  -119.988
49.6743     63.559  -122.275
50.3968     64.011  -124.638
51.1299     64.466  -127.067
51.8736     64.916  -129.536
52.6281     65.360  -132.023
53.3936     65.797  -134.502
54.1702     66.230  -137.039
54.9581     66.657  -139.690
55.7575     67.078  -142.418
56.5685     67.490  -145.248
57.3914     67.891  -148.143
58.2261     68.280  -151.026
59.0730     68.662  -153.918
59.9323     69.038  -156.840
60.8040     69.410  -159.791
61.6884     69.776  -162.804
62.5857     70.133  -165.851
63.4960     70.477  -168.969
64.4196     70.803  -172.164
65.3566     71.110  -175.397
66.3073     71.402  -178.665
67.2717     71.679   178.085
68.2502     71.947   174.885
69.2429     72.208   171.708
70.2501     72.463   168.548
71.2719     72.707   165.359
72.3086     72.936   162.127
73.3603     73.149   158.884
74.4274     73.348   155.652
75.5099     73.536   152.458
76.6083     73.713   149.302
77.7226     73.882   146.170
78.8531     74.039   143.053
80.0000     74.177   139.952
81.1636     74.297   136.871
82.3442     74.406   133.864
83.5419     74.508   130.949
84.7570     74.609   128.076
85.9899     74.710   125.245
87.2406     74.806   122.454
88.5096     74.892   119.659
89.7970     74.971   116.880
91.1031     75.038   114.156
92.4282     75.096   111.471
93.7726     75.151   108.826
95.1366     75.198   106.232
96.5204     75.238   103.678
97.9243     75.273   101.173
99.3486     75.301    98.714
100.794     75.324    96.292
102.260     75.344    93.929
103.747     75.357    91.602
105.256     75.366    89.323
106.787     75.374    87.107
108.340     75.379    84.932
109.916     75.383    82.806
111.515     75.387    80.719
113.137     75.385    78.678
114.783     75.379    76.665
116.452     75.372    74.702
118.146     75.364    72.805
119.865     75.357    70.955
121.608     75.355    69.123
123.377     75.354    67.334
125.171     75.350    65.547
126.992     75.348    63.783
128.839     75.346    62.051
130.713     75.344    60.362
132.615     75.351    58.682
134.543     75.359    57.007
136.500     75.368    55.303
138.486     75.375    53.563
140.500     75.370    51.811
142.544     75.362    50.078
144.617     75.348    48.376
146.721     75.330    46.735
148.855     75.317    45.138
151.020     75.306    43.557
153.217     75.297    41.963
155.445     75.286    40.370
157.706     75.275    38.771
160.000     75.258    37.168
162.327     75.235    35.620
164.688     75.212    34.110
167.084     75.190    32.624
169.514     75.169    31.153
171.980     75.147    29.683
174.481     75.122    28.216
177.019     75.090    26.789
179.594     75.054    25.476
182.206     75.029    24.260
184.856     75.021    23.092
187.545     75.033    21.899
190.273     75.057    20.597
193.041     75.081    19.194
195.849     75.099    17.715
198.697     75.107    16.220
201.587     75.116    14.736
204.520     75.125    13.173
207.494     75.124    11.541
210.512     75.109     9.879
213.574     75.072     8.218
216.681     75.018     6.641
219.833     74.955     5.140
223.030     74.881     3.795
226.274     74.819     2.633
229.565     74.777     1.548
232.905     74.748     0.510
236.292     74.746    -0.484
239.729     74.772    -1.626
243.216     74.798    -2.982
246.754     74.811    -4.489
250.343     74.800    -6.064
253.984     74.767    -7.609
257.678     74.718    -9.040
261.426     74.670   -10.355
265.229     74.638   -11.571
269.087     74.625   -12.888
273.001     74.606   -14.274
276.972     74.582   -15.702
281.000     74.542   -17.127
285.088     74.493   -18.403
289.234     74.458   -19.599
293.441     74.437   -20.786
297.709     74.426   -22.009
302.040     74.419   -23.391
306.433     74.392   -24.791
310.890     74.358   -26.117
315.412     74.335   -27.432
320.000     74.321   -28.715
324.655     74.318   -30.116
329.377     74.312   -31.621
334.168     74.297   -33.154
339.028     74.274   -34.725
343.959     74.249   -36.328
348.962     74.218   -37.968
354.038     74.167   -39.717
359.188     74.086   -41.401
364.412     73.987   -42.890
369.713     73.898   -44.187
375.090     73.830   -45.347
380.546     73.788   -46.571
386.081     73.764   -47.883
391.697     73.726   -49.320
397.394     73.693   -50.810
403.175     73.663   -52.342
409.039     73.613   -54.084
414.989     73.537   -55.929
421.025     73.399   -57.642
427.149     73.231   -59.015
433.362     73.082   -59.886
439.665     72.992   -60.484
446.060     72.986   -61.138
452.548     73.029   -62.140
459.131     73.049   -63.535
465.809     73.071   -64.912
472.584     73.106   -66.631
479.458     73.067   -68.449
486.432     73.033   -70.010
493.507     73.013   -71.790
500.686     72.953   -73.605
507.968     72.922   -75.201
515.357     72.883   -77.223
522.853     72.809   -79.246
530.458     72.690   -80.943
538.174     72.590   -82.512
546.002     72.496   -83.867
553.943     72.459   -84.728
562.001     72.542   -86.099
570.175     72.643   -88.337
578.469     72.669   -91.263
586.883     72.569   -94.781
595.419     72.347   -97.850
604.080     72.045  -100.100
612.866     71.698  -101.238
621.780     71.550  -101.558
630.824     71.512  -102.338
640.000     71.477  -103.616
649.309     71.485  -105.365
658.753     71.398  -107.443
668.335     71.258  -108.967
678.056     71.181  -110.322
687.919     71.186  -111.712
697.925     71.243  -113.627
708.077     71.329  -116.214
718.376     71.342  -119.491
728.825     71.229  -122.670
739.426     71.076  -125.557
750.181     70.879  -128.573
761.093     70.589  -131.177
772.163     70.351  -133.294
783.394     70.078  -135.466
794.789     69.770  -137.023
806.349     69.540  -137.769
818.078     69.371  -138.548
829.977     69.269  -138.819
842.050     69.361  -139.258
854.298     69.490  -141.031
866.724     69.569  -143.243
879.330     69.671  -145.644
892.120     69.693  -149.270
905.097     69.559  -152.731
918.262     69.347  -155.757
931.618     69.038  -158.031
945.169     68.789  -159.962
958.917     68.608  -161.432
972.864     68.462  -162.767
987.015     68.411  -164.651
1001.37     68.308  -166.492
1015.94     68.194  -168.183
1030.71     68.114  -170.270
1045.71     68.034  -172.008
1060.92     68.101  -174.304
1076.35     68.114  -177.485
1092.00     68.028   178.867
1107.89     67.872   175.390
1124.00     67.683   172.083
1140.35     67.457   167.649
1156.94     66.951   165.278
1173.77     66.613   164.243
1190.84     66.325   162.714
1208.16     66.026   163.233
1225.73     66.135   162.560
1243.56     66.126   159.969
1261.65     66.086   158.640
1280.00     66.249   155.953
1298.62     66.257   152.640
1317.51     66.383   149.922
1336.67     66.555   145.689
1356.11     66.514   141.207
1375.84     66.492   137.116
1395.85     66.281   132.374
1416.15     65.924   128.631
1436.75     65.710   125.493
1457.65     65.384   121.627
1478.85     65.111   118.334
1500.36     64.730   115.468
1522.19     64.257   113.049
1544.33     64.027   113.170
1566.79     63.918   113.454
1589.58     64.129   112.912
1612.70     64.562   111.752
1636.16     64.882   107.956
1659.95     65.123   102.196
1684.10     65.018    96.277
1708.60     64.853    91.508
1733.45     64.654    87.409
1758.66     64.398    83.522
1784.24     64.185    81.153
1810.19     64.015    78.042
1836.52     63.807    75.332
1863.24     63.549    73.734
1890.34     63.522    71.510
1917.83     63.759    68.513
1945.73     64.055    64.198
1974.03     64.368    58.237
2002.74     64.431    50.582
2031.87     64.247    42.227
2061.43     63.880    33.976
2091.41     63.334    25.505
2121.83     62.572    18.403
2152.69     61.742    14.185
2184.01     61.168    11.730
2215.77     60.772     9.206
2248.00     60.520     4.790
2280.70     60.251    -1.830
2313.87     59.714    -9.189
2347.53     59.053   -16.409
2381.68     58.184   -21.490
2416.32     57.258   -24.427
2451.46     56.809   -25.765
2487.12     56.579   -27.034
2523.30     56.456   -30.797
2560.00     56.509   -34.560
2597.24     56.635   -36.885
2635.01     56.670   -40.525
2673.34     56.748   -45.312
2712.23     56.659   -51.982
2751.68     56.221   -59.310
2791.70     55.448   -67.507
2832.31     54.234   -76.028
2873.50     52.478   -81.171
2915.30     50.688   -83.533
2957.70     48.953   -83.241
3000.72     47.651   -76.228
3044.37     46.907   -64.366
3088.65     47.901   -48.597
3133.58     50.527   -46.151
3179.16     52.331   -58.061
3225.40     52.866   -72.883
3272.31     52.668   -85.174
3319.91     52.289   -90.899
3368.20     52.151   -90.741
3417.19     52.493   -86.140
3466.89     53.103   -82.181
3517.32     53.783   -82.226
3568.48     54.490   -84.268
3620.39     55.022   -88.984
3673.05     55.500   -93.850
3726.47     56.040   -99.812
3780.67     56.398  -107.818
3835.67     56.710  -115.923
3891.46     56.959  -124.687
3948.06     57.017  -133.571
4005.49     57.135  -141.152
4063.75     57.317  -148.654
4122.86     57.454  -155.710
4182.82     57.642  -162.728
4243.66     57.732  -169.654
4305.39     57.756  -176.056
4368.01     57.820   177.925
4431.55     57.933   171.841
4496.01     58.104   164.947
4561.40     58.279   157.139
4627.75     58.451   148.643
4695.06     58.577   139.447
4763.35     58.638   130.212
4832.64     58.614   121.302
4902.93     58.474   112.919
4974.24     58.277   105.932
5046.60     58.111   100.087
5120.00     58.015    94.503
5194.47     57.991    88.808
5270.03     57.989    82.577
5346.68     57.904    75.636
5424.45     57.695    68.784
5503.35     57.377    62.175
5583.40     56.944    56.075
5664.61     56.480    50.744
5747.01     56.080    46.097
5830.60     55.826    42.124
5915.41     55.840    38.299
6001.45     56.111    33.719
6088.74     56.500    27.774
6177.30     56.871    20.247
6267.15     57.116    11.341
6358.31     57.180     1.491
6450.80     57.056    -8.611
6544.62     56.750   -18.431
6639.82     56.306   -27.499
6736.40     55.790   -35.365
6834.38     55.273   -41.684
6933.79     54.897   -46.908
7034.64     54.788   -52.400
7136.96     54.912   -58.961
7240.77     55.164   -67.000
7346.09     55.405   -76.750
7452.94     55.528   -87.126
7561.35     55.516   -97.118
7671.33     55.393  -106.905
7782.91     55.206  -116.801
7896.12     55.012  -127.071
8010.97     54.797  -138.024
8127.49     54.533  -149.631
8245.71     54.205  -161.688
8365.65     53.757  -173.678
8487.33     53.082   175.318
8610.78     52.123   166.232
8736.03     50.888   159.739
8863.09     49.448   155.824
8992.01     48.087   153.603
9122.80     47.213   151.863
9255.50     47.070   149.898
9390.12     47.606   147.373
9526.70     48.451   143.467
9665.27     49.180   137.613
9805.86     49.607   129.728
9948.49     49.618   119.357
10093.2     49.114   107.658
10240.0     48.193    98.056
10388.9     47.080    92.516
10540.1     46.043    90.913
10693.4     45.508    92.226
10848.9     45.672    93.862
11006.7     46.284    93.136
11166.8     47.095    88.995
11329.2     47.877    81.519
11494.0     48.417    71.602
11661.2     48.669    60.345
11830.8     48.643    48.719
12002.9     48.448    37.869
12177.5     48.369    28.134
12354.6     48.618    18.555
12534.3     49.139     8.293
12716.6     49.768    -3.246
12901.6     50.252   -16.652
13089.2     50.348   -31.292
13279.6     50.032   -46.110
13472.8     49.375   -60.577
13668.8     48.489   -73.773
13867.6     47.643   -85.397
14069.3     46.987   -96.029
14273.9     46.526  -106.177
14481.5     46.223  -117.093
14692.2     45.898  -129.725
14905.9     45.393  -143.412
15122.7     44.713  -157.077
15342.7     44.039  -169.997
15565.8     43.559   178.118
15792.2     43.330   166.526
16021.9     43.330   153.534
16255.0     43.292   138.313
16491.4     42.939   121.053
16731.3     42.237   102.735
16974.7     41.173    85.132
17221.6     39.895    66.886
17472.1     38.803    44.555
17726.2     38.012    15.640
17984.0     37.461   -21.853
18245.6     37.228   -66.010
18511.0     37.089  -111.233
18780.2     36.884  -151.916
19053.4     36.878   174.421
19330.5     37.211   145.311
19611.7     37.874   117.680
19897.0     38.753    88.357
20186.4     39.675    53.231
20480.0     40.610    10.711
20777.9     41.334   -39.991
21080.1     41.577   -98.556
21386.7     41.349  -161.559
21697.8     40.612   134.638
22013.4     39.309    75.101
22333.6     37.681    26.006
22658.4     36.273    -9.550
22988.0     35.615   -32.336
23322.4     35.676   -46.203
23661.6     35.984   -54.673
24005.8     36.161   -59.073
24355.0     35.854   -62.547
24709.2     34.973   -72.156
25068.6     33.794   -95.918
25433.2     32.887  -138.383
25803.2     32.796   160.877
26178.5     33.672    88.781
26559.3     35.092    19.032
26945.6     36.503   -36.986
27337.5     37.343   -77.208
27735.2     37.448  -105.518
28138.6     36.999  -128.780
28547.9     35.910  -153.090
28963.1     34.116   178.692
29384.4     32.304   144.709
29811.8     31.180   104.949
30245.4     31.087    60.164
30685.3     32.265    12.428
31131.7     34.045   -33.687
31584.5     35.815   -77.034
32043.9     37.381  -117.700
32510.0     38.405  -154.328
32982.8     39.030   171.529
33462.6     39.555   138.428
33949.3     39.803   107.153
34443.1     39.805    78.208
34944.1     39.683    51.680
35452.4     39.300    28.106
35968.0     38.797     7.832
36491.2     38.350   -11.118
37022.0     38.008   -31.032
37560.5     38.215   -52.948
38106.8     38.681   -75.187
38661.1     39.469   -99.028
39223.4     40.192  -118.965
39793.9     40.760  -135.541
