Freq[Hz]     dBSPL  Phase[Deg]
Freq[Hz]     dBSPL  Phase[Deg]
5.00000    -11.190   -12.334
5.07273    -10.835   -12.422
5.14651    -10.450   -12.516
5.22137    -10.019   -12.620
5.29732     -9.570   -12.729
5.37437     -9.100   -12.843
5.45254     -8.631   -12.959
5.53185     -8.161   -13.076
5.61231     -7.691   -13.195
5.69394     -7.222   -13.316
5.77676     -6.752   -13.439
5.86079     -6.282   -13.563
5.94604     -5.813   -13.690
6.03252     -5.343   -13.818
6.12027     -4.873   -13.948
6.20929     -4.404   -14.079
6.29961     -3.934   -14.213
6.39124     -3.464   -14.349
6.48420     -2.994   -14.487
6.57851     -2.525   -14.626
6.67420     -2.055   -14.768
6.77128     -1.585   -14.912
6.86977     -1.115   -15.058
6.96969     -0.645   -15.206
7.07107     -0.175   -15.356
7.17392      0.295   -15.508
7.27827      0.764   -15.663
7.38413      1.234   -15.819
7.49154      1.704   -15.979
7.60050      2.174   -16.140
7.71105      2.644   -16.304
7.82321      3.114   -16.470
7.93701      3.585   -16.639
8.05245      4.055   -16.810
8.16958      4.525   -16.983
8.28841      4.995   -17.159
8.40896      5.465   -17.338
8.53128      5.935   -17.519
8.65537      6.406   -17.703
8.78126      6.876   -17.890
8.90899      7.346   -18.079
9.03857      7.817   -18.271
9.17004      8.287   -18.466
9.30342      8.758   -18.664
9.43874      9.228   -18.865
9.57603      9.699   -19.068
9.71532     10.169   -19.275
9.85663     10.640   -19.485
10.0000     11.110   -19.697
10.1455     11.581   -19.913
10.2930     12.052   -20.132
10.4427     12.523   -20.354
10.5946     12.994   -20.580
10.7487     13.465   -20.809
10.9051     13.935   -21.041
11.0637     14.407   -21.276
11.2246     14.878   -21.515
11.3879     15.349   -21.758
11.5535     15.820   -22.004
11.7216     16.291   -22.254
11.8921     16.763   -22.507
12.0650     17.234   -22.765
12.2405     17.706   -23.026
12.4186     18.177   -23.290
12.5992     18.649   -23.559
12.7825     19.120   -23.832
12.9684     19.592   -24.109
13.1570     20.064   -24.390
13.3484     20.536   -24.675
13.5426     21.008   -24.964
13.7395     21.480   -25.258
13.9394     21.953   -25.556
14.1421     22.425   -25.858
14.3478     22.898   -26.165
14.5565     23.370   -26.476
14.7683     23.843   -26.793
14.9831     24.316   -27.113
15.2010     24.789   -27.439
15.4221     25.262   -27.770
15.6464     25.735   -28.105
15.8740     26.208   -28.446
16.1049     26.682   -28.792
16.3392     27.155   -29.142
16.5768     27.629   -29.499
16.8179     28.103   -29.860
17.0626     28.577   -30.227
17.3107     29.052   -30.600
17.5625     29.526   -30.978
17.8180     30.001   -31.363
18.0771     30.475   -31.753
18.3401     30.950   -32.149
18.6068     31.426   -32.551
18.8775     31.901   -32.959
19.1521     32.377   -33.374
19.4306     32.853   -33.795
19.7133     33.326   -34.242
20.0000     33.794   -34.740
20.2909     34.249   -35.297
20.5860     34.686   -35.872
20.8855     35.110   -36.294
21.1893     35.526   -36.480
21.4975     35.945   -36.524
21.8102     36.379   -36.531
22.1274     36.836   -36.602
22.4492     37.314   -36.808
22.7758     37.812   -37.134
23.1071     38.321   -37.595
23.4432     38.833   -38.160
23.7841     39.342   -38.872
24.1301     39.842   -39.827
24.4811     40.332   -40.901
24.8372     40.813   -41.905
25.1984     41.287   -42.769
25.5649     41.760   -43.457
25.9368     42.232   -44.071
26.3141     42.706   -44.738
26.6968     43.182   -45.513
27.0851     43.658   -46.424
27.4791     44.133   -47.426
27.8788     44.608   -48.429
28.2843     45.084   -49.357
28.6957     45.561   -50.222
29.1131     46.038   -51.091
29.5365     46.518   -52.007
29.9661     46.998   -53.020
30.4020     47.476   -54.072
30.8442     47.952   -55.129
31.2929     48.421   -56.213
31.7480     48.883   -57.321
32.2098     49.342   -58.488
32.6783     49.802   -59.697
33.1536     50.271   -60.736
33.6359     50.754   -61.505
34.1251     51.251   -62.013
34.6215     51.759   -62.594
35.1250     52.274   -63.463
35.6359     52.793   -64.655
36.1543     53.318   -65.969
36.6802     53.848   -67.302
37.2137     54.375   -68.600
37.7550     54.899   -69.889
38.3041     55.417   -71.294
38.8613     55.928   -72.951
39.4265     56.439   -74.643
40.0000     56.953   -76.210
40.5818     57.471   -77.591
41.1721     57.992   -78.963
41.7710     58.512   -80.486
42.3785     59.026   -82.264
42.9949     59.534   -84.264
43.6203     60.033   -86.379
44.2548     60.526   -88.481
44.8985     61.013   -90.455
45.5515     61.499   -92.258
46.2141     61.984   -93.955
46.8863     62.472   -95.648
47.5683     62.965   -97.413
48.2602     63.461   -99.300
48.9621     63.962  -101.307
49.6743     64.465  -103.406
50.3968     64.970  -105.578
51.1299     65.473  -107.806
51.8736     65.973  -110.076
52.6281     66.470  -112.393
53.3936     66.962  -114.770
54.1702     67.449  -117.221
54.9581     67.932  -119.741
55.7575     68.410  -122.338
56.5685     68.884  -125.021
57.3914     69.352  -127.769
58.2261     69.813  -130.570
59.0730     70.266  -133.440
59.9323     70.707  -136.398
60.8040     71.135  -139.441
61.6884     71.552  -142.550
62.5857     71.957  -145.719
63.4960     72.350  -148.946
64.4196     72.727  -152.218
65.3566     73.086  -155.530
66.3073     73.430  -158.887
67.2717     73.760  -162.278
68.2502     74.078  -165.692
69.2429     74.387  -169.142
70.2501     74.681  -172.644
71.2719     74.954  -176.196
72.3086     75.201  -179.758
73.3603     75.424   176.726
74.4274     75.627   173.276
75.5099     75.814   169.897
76.6083     75.988   166.570
77.7226     76.150   163.269
78.8531     76.299   159.995
80.0000     76.434   156.754
81.1636     76.555   153.572
82.3442     76.666   150.464
83.5419     76.766   147.413
84.7570     76.854   144.411
85.9899     76.931   141.471
87.2406     76.996   138.602
88.5096     77.051   135.815
89.7970     77.099   133.114
91.1031     77.145   130.489
92.4282     77.189   127.920
93.7726     77.230   125.405
95.1366     77.266   122.944
96.5204     77.297   120.527
97.9243     77.324   118.159
99.3486     77.345   115.847
100.794     77.363   113.591
102.260     77.377   111.391
103.747     77.389   109.252
105.256     77.402   107.169
106.787     77.415   105.113
108.340     77.427   103.066
109.916     77.434   101.042
111.515     77.434    99.057
113.137     77.427    97.131
114.783     77.417    95.285
116.452     77.410    93.504
118.146     77.405    91.752
119.865     77.401    90.017
121.608     77.394    88.302
123.377     77.382    86.622
125.171     77.367    85.006
126.992     77.352    83.453
128.839     77.340    81.947
130.713     77.332    80.475
132.615     77.327    79.012
134.543     77.323    77.552
136.500     77.317    76.105
138.486     77.311    74.675
140.500     77.304    73.263
142.544     77.296    71.878
144.617     77.289    70.525
146.721     77.283    69.192
148.855     77.279    67.871
151.020     77.275    66.552
153.217     77.268    65.231
155.445     77.258    63.914
157.706     77.243    62.612
160.000     77.219    61.347
162.327     77.192    60.149
164.688     77.166    59.022
167.084     77.145    57.949
169.514     77.130    56.913
171.980     77.123    55.885
174.481     77.120    54.846
177.019     77.116    53.799
179.594     77.111    52.754
182.206     77.104    51.721
184.856     77.098    50.705
187.545     77.092    49.695
190.273     77.085    48.692
193.041     77.076    47.707
195.849     77.065    46.747
198.697     77.054    45.819
201.587     77.043    44.913
204.520     77.032    44.024
207.494     77.018    43.176
210.512     77.006    42.393
213.574     77.001    41.686
216.681     77.010    41.026
219.833     77.039    40.346
223.030     77.081    39.554
226.274     77.120    38.587
229.565     77.142    37.507
232.905     77.142    36.425
236.292     77.129    35.404
239.729     77.109    34.488
243.216     77.091    33.674
246.754     77.080    32.910
250.343     77.074    32.159
253.984     77.068    31.445
257.678     77.071    30.808
261.426     77.091    30.159
265.229     77.122    29.404
269.087     77.150    28.522
273.001     77.162    27.524
276.972     77.149    26.527
281.000     77.123    25.675
285.088     77.105    24.976
289.234     77.105    24.333
293.441     77.123    23.607
297.709     77.140    22.740
302.040     77.140    21.800
306.433     77.120    20.913
310.890     77.094    20.172
315.412     77.079    19.577
320.000     77.088    19.015
324.655     77.116    18.344
329.377     77.146    17.495
334.168     77.162    16.498
339.028     77.152    15.453
343.959     77.115    14.517
348.962     77.075    13.774
354.038     77.049    13.121
359.188     77.031    12.485
364.412     77.024    11.857
369.713     77.029    11.123
375.090     77.022    10.277
380.546     77.000     9.457
386.081     76.974     8.677
391.697     76.944     7.910
397.394     76.900     7.148
403.175     76.836     6.474
409.039     76.764     6.014
414.989     76.710     5.751
421.025     76.687     5.624
427.149     76.707     5.515
433.362     76.762     5.229
439.665     76.822     4.644
446.060     76.861     3.795
452.548     76.860     2.847
459.131     76.820     1.984
465.809     76.761     1.366
472.584     76.716     1.031
479.458     76.711     0.811
486.432     76.741     0.519
493.507     76.785     0.074
500.686     76.833    -0.524
507.968     76.869    -1.272
515.357     76.876    -2.067
522.853     76.863    -2.729
530.458     76.853    -3.228
538.174     76.860    -3.613
546.002     76.894    -3.992
553.943     76.949    -4.487
562.001     77.013    -5.083
570.175     77.087    -5.838
578.469     77.142    -6.805
586.883     77.170    -7.786
595.419     77.189    -8.693
604.080     77.199    -9.657
612.866     77.195   -10.637
621.780     77.182   -11.522
630.824     77.162   -12.320
640.000     77.147   -13.016
649.309     77.149   -13.667
658.753     77.153   -14.447
668.335     77.140   -15.304
678.056     77.121   -16.103
687.919     77.102   -16.778
697.925     77.111   -17.270
708.077     77.189   -17.899
718.376     77.263   -19.157
728.825     77.228   -20.610
739.426     77.154   -21.567
750.181     77.121   -22.242
761.093     77.116   -22.990
772.163     77.118   -23.760
783.394     77.123   -24.537
794.789     77.116   -25.408
806.349     77.097   -26.242
818.078     77.081   -27.064
829.977     77.061   -27.924
842.050     77.050   -28.684
854.298     77.064   -29.420
866.724     77.085   -30.256
879.330     77.110   -31.163
892.120     77.146   -32.191
905.097     77.173   -33.385
918.262     77.174   -34.660
931.618     77.152   -35.932
945.169     77.120   -37.115
958.917     77.086   -38.142
972.864     77.069   -39.186
987.015     77.061   -40.430
1001.37     77.037   -41.782
1015.94     76.993   -43.207
1030.71     76.920   -44.619
1045.71     76.823   -45.760
1060.92     76.735   -46.709
1076.35     76.646   -47.660
1092.00     76.535   -48.517
1107.89     76.416   -49.115
1124.00     76.329   -49.443
1140.35     76.302   -49.580
1156.94     76.342   -49.646
1173.77     76.454   -50.056
1190.84     76.577   -51.154
1208.16     76.644   -52.630
1225.73     76.670   -54.143
1243.56     76.677   -55.590
1261.65     76.683   -56.852
1280.00     76.715   -58.116
1298.62     76.748   -59.561
1317.51     76.778   -61.145
1336.67     76.796   -62.964
1356.11     76.757   -64.835
1375.84     76.690   -66.474
1395.85     76.623   -67.976
1416.15     76.543   -69.379
1436.75     76.464   -70.678
1457.65     76.388   -71.891
1478.85     76.318   -72.961
1500.36     76.274   -73.929
1522.19     76.270   -74.828
1544.33     76.320   -75.854
1566.79     76.392   -77.316
1589.58     76.436   -79.007
1612.70     76.451   -80.556
1636.16     76.491   -82.001
1659.95     76.597   -83.598
1684.10     76.728   -85.621
1708.60     76.831   -88.150
1733.45     76.885   -90.926
1758.66     76.869   -93.763
1784.24     76.777   -96.523
1810.19     76.646   -98.874
1836.52     76.514  -100.730
1863.24     76.407  -102.237
1890.34     76.358  -103.526
1917.83     76.397  -104.890
1945.73     76.501  -106.625
1974.03     76.628  -108.917
2002.74     76.738  -111.808
2031.87     76.783  -115.125
2061.43     76.741  -118.661
2091.41     76.625  -122.207
2121.83     76.451  -125.468
2152.69     76.245  -128.196
2184.01     76.031  -130.381
2215.77     75.815  -132.104
2248.00     75.636  -133.478
2280.70     75.534  -134.785
2313.87     75.504  -136.273
2347.53     75.529  -138.026
2381.68     75.588  -139.995
2416.32     75.642  -142.160
2451.46     75.667  -144.418
2487.12     75.666  -146.476
2523.30     75.660  -148.397
2560.00     75.658  -150.401
2597.24     75.653  -152.470
2635.01     75.640  -154.686
2673.34     75.610  -157.068
2712.23     75.558  -159.401
2751.68     75.496  -161.510
2791.70     75.448  -163.382
2832.31     75.431  -165.084
2873.50     75.451  -166.696
2915.30     75.514  -168.329
2957.70     75.607  -170.101
3000.72     75.698  -172.100
3044.37     75.758  -174.328
3088.65     75.758  -176.674
3133.58     75.713  -178.702
3179.16     75.717   179.260
3225.40     75.664   177.150
3272.31     75.580   175.622
3319.91     75.529   174.725
3368.20     75.543   174.180
3417.19     75.630   173.676
3466.89     75.786   172.880
3517.32     75.974   171.570
3568.48     76.148   169.799
3620.39     76.278   167.730
3673.05     76.352   165.633
3726.47     76.383   163.814
3780.67     76.412   162.331
3835.67     76.476   160.984
3891.46     76.577   159.498
3948.06     76.683   157.689
4005.49     76.761   155.560
4063.75     76.785   153.342
4122.86     76.752   151.309
4182.82     76.690   149.595
4243.66     76.622   148.227
4305.39     76.558   147.146
4368.01     76.508   146.258
4431.55     76.478   145.561
4496.01     76.481   145.055
4561.40     76.533   144.594
4627.75     76.620   144.010
4695.06     76.721   143.270
4763.35     76.825   142.420
4832.64     76.939   141.501
4902.93     77.081   140.283
4974.24     77.154   138.468
5046.60     77.124   137.131
5120.00     77.129   136.138
5194.47     77.154   134.978
5270.03     77.166   133.646
5346.68     77.157   132.271
5424.45     77.129   130.962
5503.35     77.083   129.743
5583.40     77.011   128.578
5664.61     76.901   127.509
5747.01     76.754   126.663
5830.60     76.589   126.112
5915.41     76.433   125.832
6001.45     76.305   125.717
6088.74     76.201   125.613
6177.30     76.097   125.447
6267.15     75.968   125.314
6358.31     75.815   125.378
6450.80     75.664   125.685
6544.62     75.530   126.127
6639.82     75.406   126.662
6736.40     75.301   127.374
6834.38     75.225   128.210
6933.79     75.167   129.107
7034.64     75.130   130.124
7136.96     75.123   131.113
7240.77     75.120   131.938
7346.09     75.113   132.744
7452.94     75.126   133.447
7561.35     75.137   133.869
7671.33     75.129   134.237
7782.91     75.131   134.658
7896.12     75.136   134.940
8010.97     75.107   135.190
8127.49     75.062   135.575
8245.71     75.021   135.854
8365.65     74.938   135.902
8487.33     74.783   136.032
8610.78     74.591   136.457
8736.03     74.377   137.129
8863.09     74.136   138.062
8992.01     73.889   139.312
9122.80     73.650   140.827
9255.50     73.412   142.624
9390.12     73.178   144.771
9526.70     72.945   147.280
9665.27     72.734   150.320
9805.86     72.611   153.742
9948.49     72.590   157.186
10093.2     72.686   160.645
10240.0     72.924   163.724
10388.9     73.237   165.973
10540.1     73.566   167.404
10693.4     73.861   167.964
10848.9     74.061   167.895
11006.7     74.153   167.618
11166.8     74.142   167.474
11329.2     74.064   167.773
11494.0     73.962   168.420
11661.2     73.846   169.337
11830.8     73.740   170.478
12002.9     73.633   171.649
12177.5     73.496   172.975
12354.6     73.345   174.597
12534.3     73.189   176.450
12716.6     73.041   178.594
12901.6     72.939  -179.095
13089.2     72.880  -176.870
13279.6     72.849  -174.749
13472.8     72.841  -172.852
13668.8     72.823  -171.218
13867.6     72.784  -169.722
14069.3     72.717  -168.336
14273.9     72.617  -166.910
14481.5     72.495  -165.353
14692.2     72.347  -163.611
14905.9     72.184  -161.629
15122.7     72.022  -159.520
15342.7     71.859  -157.345
15565.8     71.707  -155.149
15792.2     71.568  -152.977
16021.9     71.442  -150.820
16255.0     71.311  -148.709
16491.4     71.160  -146.632
16731.3     70.986  -144.509
16974.7     70.776  -142.296
17221.6     70.521  -140.001
17472.1     70.211  -137.545
17726.2     69.837  -134.757
17984.0     69.401  -131.543
18245.6     68.923  -127.822
18511.0     68.432  -123.542
18780.2     67.964  -118.757
19053.4     67.558  -113.573
19330.5     67.230  -108.180
19611.7     66.989  -102.702
19897.0     66.836   -97.201
20186.4     66.751   -91.834
20480.0     66.695   -86.685
20777.9     66.630   -81.743
21080.1     66.528   -76.849
21386.7     66.362   -71.760
21697.8     66.164   -66.188
22013.4     65.984   -59.858
22333.6     65.858   -52.980
22658.4     65.845   -45.866
22988.0     65.942   -38.734
23322.4     66.109   -32.008
23661.6     66.330   -25.765
24005.8     66.567   -19.811
24355.0     66.799   -14.144
24709.2     67.030    -8.688
25068.6     67.254    -3.331
25433.2     67.456     1.820
25803.2     67.634     6.642
26178.5     67.782    11.141
26559.3     67.879    15.376
26945.6     67.913    19.502
27337.5     67.889    23.749
27735.2     67.808    28.312
28138.6     67.676    33.364
28547.9     67.526    38.956
28963.1     67.385    44.984
29384.4     67.269    51.311
29811.8     67.187    57.747
30245.4     67.127    64.128
30685.3     67.081    70.450
31131.7     67.050    76.786
31584.5     67.035    83.209
32043.9     67.034    89.807
32510.0     67.052    96.607
32982.8     67.079   103.557
33462.6     67.095   110.763
33949.3     67.128   118.455
34443.1     67.236   126.576
34944.1     67.448   134.830
35452.4     67.778   142.911
35968.0     68.201   150.449
36491.2     68.656   157.186
37022.0     69.085   163.163
37560.5     69.447   168.581
38106.8     69.721   173.788
38661.1     69.908   178.842
39223.4     70.023  -175.903
