Freq[Hz]     dBSPL  Phase[Deg]
Freq[Hz]     dBSPL  Phase[Deg]
5.00000    -12.084   -12.921
5.07273    -11.727   -13.011
5.14651    -11.339   -13.109
5.22137    -10.904   -13.218
5.29732    -10.451   -13.332
5.37437     -9.977   -13.452
5.45254     -9.503   -13.574
5.53185     -9.028   -13.698
5.61231     -8.554   -13.823
5.69394     -8.080   -13.950
5.77676     -7.606   -14.080
5.86079     -7.132   -14.211
5.94604     -6.657   -14.344
6.03252     -6.183   -14.478
6.12027     -5.709   -14.615
6.20929     -5.235   -14.754
6.29961     -4.760   -14.895
6.39124     -4.286   -15.038
6.48420     -3.812   -15.183
6.57851     -3.337   -15.330
6.67420     -2.863   -15.479
6.77128     -2.389   -15.630
6.86977     -1.914   -15.784
6.96969     -1.440   -15.940
7.07107     -0.965   -16.098
7.17392     -0.491   -16.258
7.27827     -0.016   -16.421
7.38413      0.458   -16.586
7.49154      0.933   -16.754
7.60050      1.407   -16.924
7.71105      1.882   -17.096
7.82321      2.357   -17.271
7.93701      2.831   -17.449
8.05245      3.306   -17.629
8.16958      3.781   -17.812
8.28841      4.255   -17.997
8.40896      4.730   -18.185
8.53128      5.205   -18.376
8.65537      5.680   -18.570
8.78126      6.155   -18.767
8.90899      6.630   -18.966
9.03857      7.105   -19.168
9.17004      7.580   -19.374
9.30342      8.055   -19.582
9.43874      8.530   -19.793
9.57603      9.005   -20.008
9.71532      9.480   -20.225
9.85663      9.955   -20.446
10.0000     10.430   -20.670
10.1455     10.906   -20.897
10.2930     11.381   -21.128
10.4427     11.856   -21.362
10.5946     12.332   -21.599
10.7487     12.807   -21.840
10.9051     13.283   -22.085
11.0637     13.758   -22.333
11.2246     14.234   -22.585
11.3879     14.710   -22.840
11.5535     15.186   -23.099
11.7216     15.662   -23.362
11.8921     16.137   -23.629
12.0650     16.613   -23.900
12.2405     17.090   -24.175
12.4186     17.566   -24.454
12.5992     18.042   -24.737
12.7825     18.518   -25.024
12.9684     18.995   -25.316
13.1570     19.471   -25.611
13.3484     19.948   -25.911
13.5426     20.424   -26.216
13.7395     20.901   -26.525
13.9394     21.378   -26.839
14.1421     21.855   -27.157
14.3478     22.332   -27.481
14.5565     22.809   -27.808
14.7683     23.286   -28.141
14.9831     23.764   -28.479
15.2010     24.241   -28.822
15.4221     24.719   -29.170
15.6464     25.197   -29.523
15.8740     25.675   -29.882
16.1049     26.153   -30.246
16.3392     26.631   -30.615
16.5768     27.109   -30.990
16.8179     27.588   -31.371
17.0626     28.066   -31.757
17.3107     28.545   -32.149
17.5625     29.024   -32.548
17.8180     29.504   -32.952
18.0771     29.983   -33.362
18.3401     30.463   -33.779
18.6068     30.942   -34.202
18.8775     31.422   -34.632
19.1521     31.903   -35.068
19.4306     32.383   -35.511
19.7133     32.863   -35.971
20.0000     33.342   -36.461
20.2909     33.816   -36.979
20.5860     34.283   -37.492
20.8855     34.737   -37.900
21.1893     35.177   -38.167
21.4975     35.609   -38.384
21.8102     36.043   -38.630
22.1274     36.486   -38.925
22.4492     36.947   -39.232
22.7758     37.431   -39.495
23.1071     37.933   -39.790
23.4432     38.451   -40.159
23.7841     38.975   -40.723
24.1301     39.497   -41.644
24.4811     40.010   -42.779
24.8372     40.506   -43.901
25.1984     40.988   -44.897
25.5649     41.458   -45.691
25.9368     41.925   -46.376
26.3141     42.395   -47.081
26.6968     42.871   -47.877
27.0851     43.353   -48.813
27.4791     43.838   -49.856
27.8788     44.321   -50.924
28.2843     44.801   -51.924
28.6957     45.277   -52.862
29.1131     45.754   -53.797
29.5365     46.230   -54.769
29.9661     46.707   -55.833
30.4020     47.182   -56.916
30.8442     47.657   -57.984
31.2929     48.132   -59.068
31.7480     48.608   -60.205
32.2098     49.081   -61.477
32.6783     49.550   -62.891
33.1536     50.006   -64.163
33.6359     50.454   -65.083
34.1251     50.905   -65.566
34.6215     51.386   -65.968
35.1250     51.904   -66.627
35.6359     52.448   -67.723
36.1543     52.994   -69.081
36.6802     53.530   -70.530
37.2137     54.054   -71.924
37.7550     54.570   -73.243
38.3041     55.088   -74.618
38.8613     55.615   -76.272
39.4265     56.140   -78.037
40.0000     56.658   -79.713
40.5818     57.168   -81.155
41.1721     57.680   -82.510
41.7710     58.201   -83.967
42.3785     58.731   -85.690
42.9949     59.264   -87.711
43.6203     59.791   -89.943
44.2548     60.303   -92.248
44.8985     60.795   -94.465
45.5515     61.271   -96.493
46.2141     61.738   -98.355
46.8863     62.206  -100.146
47.5683     62.682  -101.953
48.2602     63.167  -103.855
48.9621     63.661  -105.873
49.6743     64.162  -107.984
50.3968     64.666  -110.175
51.1299     65.171  -112.428
51.8736     65.674  -114.730
52.6281     66.175  -117.096
53.3936     66.671  -119.547
54.1702     67.162  -122.093
54.9581     67.646  -124.718
55.7575     68.123  -127.421
56.5685     68.592  -130.207
57.3914     69.053  -133.048
58.2261     69.505  -135.922
59.0730     69.950  -138.849
59.9323     70.386  -141.854
60.8040     70.812  -144.941
61.6884     71.227  -148.097
62.5857     71.632  -151.321
63.4960     72.026  -154.614
64.4196     72.404  -157.968
65.3566     72.763  -161.380
66.3073     73.104  -164.844
67.2717     73.428  -168.341
68.2502     73.741  -171.849
69.2429     74.044  -175.364
70.2501     74.337  -178.900
71.2719     74.614   177.520
72.3086     74.867   173.911
73.3603     75.096   170.313
74.4274     75.302   166.747
75.5099     75.489   163.227
76.6083     75.661   159.748
77.7226     75.820   156.297
78.8531     75.964   152.876
80.0000     76.093   149.489
81.1636     76.206   146.161
82.3442     76.305   142.923
83.5419     76.392   139.769
84.7570     76.467   136.692
85.9899     76.534   133.697
87.2406     76.594   130.776
88.5096     76.646   127.924
89.7970     76.693   125.142
91.1031     76.736   122.422
92.4282     76.777   119.758
93.7726     76.816   117.149
95.1366     76.849   114.592
96.5204     76.879   112.078
97.9243     76.904   109.603
99.3486     76.925   107.175
100.794     76.940   104.797
102.260     76.951   102.470
103.747     76.959   100.208
105.256     76.965    98.019
106.787     76.974    95.880
108.340     76.986    93.760
109.916     76.997    91.657
111.515     77.003    89.578
113.137     77.004    87.530
114.783     77.003    85.531
116.452     77.004    83.573
118.146     77.006    81.621
119.865     77.008    79.660
121.608     77.003    77.695
123.377     76.987    75.758
125.171     76.962    73.894
126.992     76.935    72.115
128.839     76.910    70.404
130.713     76.891    68.732
132.615     76.876    67.060
134.543     76.860    65.375
136.500     76.836    63.702
138.486     76.807    62.078
140.500     76.776    60.532
142.544     76.748    59.062
144.617     76.728    57.648
146.721     76.716    56.251
148.855     76.710    54.840
151.020     76.706    53.403
153.217     76.698    51.949
155.445     76.687    50.503
157.706     76.674    49.072
160.000     76.659    47.655
162.327     76.642    46.263
164.688     76.626    44.903
167.084     76.611    43.570
169.514     76.601    42.260
171.980     76.595    40.942
174.481     76.587    39.593
177.019     76.575    38.231
179.594     76.558    36.867
182.206     76.534    35.522
184.856     76.508    34.223
187.545     76.484    32.959
190.273     76.462    31.714
193.041     76.441    30.492
195.849     76.424    29.285
198.697     76.412    28.069
201.587     76.402    26.806
204.520     76.387    25.472
207.494     76.357    24.111
210.512     76.309    22.802
213.574     76.249    21.624
216.681     76.193    20.591
219.833     76.153    19.630
223.030     76.129    18.664
226.274     76.117    17.629
229.565     76.107    16.510
232.905     76.090    15.362
236.292     76.069    14.234
239.729     76.047    13.126
243.216     76.024    12.017
246.754     75.998    10.902
250.343     75.967     9.798
253.984     75.932     8.733
257.678     75.899     7.720
261.426     75.876     6.746
265.229     75.869     5.729
269.087     75.864     4.589
273.001     75.850     3.366
276.972     75.822     2.113
281.000     75.776     0.919
285.088     75.727    -0.129
289.234     75.690    -1.087
293.441     75.673    -2.051
297.709     75.667    -3.091
302.040     75.662    -4.234
306.433     75.655    -5.439
310.890     75.643    -6.731
315.412     75.615    -8.125
320.000     75.567    -9.548
324.655     75.498   -10.987
329.377     75.406   -12.358
334.168     75.309   -13.562
339.028     75.221   -14.673
343.959     75.144   -15.795
348.962     75.066   -16.984
354.038     74.970   -18.224
359.188     74.849   -19.391
364.412     74.718   -20.407
369.713     74.591   -21.302
375.090     74.475   -22.112
380.546     74.371   -22.895
386.081     74.275   -23.718
391.697     74.169   -24.573
397.394     74.049   -25.404
403.175     73.916   -26.165
409.039     73.764   -26.757
414.989     73.618   -27.072
421.025     73.505   -27.143
427.149     73.438   -27.104
433.362     73.427   -27.133
439.665     73.451   -27.474
446.060     73.468   -28.156
452.548     73.461   -28.929
459.131     73.447   -29.686
465.809     73.442   -30.506
472.584     73.446   -31.440
479.458     73.449   -32.594
486.432     73.421   -34.044
493.507     73.319   -35.573
500.686     73.153   -36.796
507.968     72.967   -37.553
515.357     72.790   -37.882
522.853     72.662   -37.840
530.458     72.617   -37.684
538.174     72.642   -37.756
546.002     72.717   -38.212
553.943     72.809   -39.227
562.001     72.854   -40.880
570.175     72.788   -42.922
578.469     72.586   -44.777
586.883     72.298   -45.843
595.419     72.016   -46.094
604.080     71.822   -45.821
612.866     71.753   -45.491
621.780     71.746   -45.732
630.824     71.709   -46.440
640.000     71.617   -47.104
649.309     71.488   -47.481
658.753     71.395   -47.411
668.335     71.387   -47.216
678.056     71.426   -47.439
687.919     71.463   -48.055
697.925     71.477   -48.906
708.077     71.453   -50.101
718.376     71.346   -51.552
728.825     71.116   -52.590
739.426     70.863   -52.703
750.181     70.699   -52.138
761.093     70.634   -51.410
772.163     70.622   -50.794
783.394     70.653   -50.194
794.789     70.744   -49.710
806.349     70.886   -49.561
818.078     71.071   -49.759
829.977     71.284   -50.525
842.050     71.442   -51.911
854.298     71.500   -53.327
866.724     71.504   -54.592
879.330     71.461   -55.760
892.120     71.389   -56.388
905.097     71.373   -56.546
918.262     71.436   -56.662
931.618     71.576   -56.867
945.169     71.776   -57.421
958.917     71.981   -58.537
972.864     72.185   -60.109
987.015     72.379   -62.004
1001.37     72.532   -64.025
1015.94     72.685   -66.033
1030.71     72.845   -68.300
1045.71     72.940   -70.906
1060.92     72.977   -73.593
1076.35     72.977   -76.384
1092.00     72.919   -79.175
1107.89     72.816   -81.823
1124.00     72.682   -84.407
1140.35     72.495   -86.807
1156.94     72.257   -88.837
1173.77     72.001   -90.172
1190.84     71.810   -90.703
1208.16     71.734   -90.815
1225.73     71.778   -90.855
1243.56     71.947   -91.313
1261.65     72.172   -92.646
1280.00     72.375   -94.895
1298.62     72.487   -97.897
1317.51     72.463  -100.903
1336.67     72.381  -103.450
1356.11     72.291  -105.894
1375.84     72.170  -108.144
1395.85     72.066  -110.115
1416.15     71.964  -112.145
1436.75     71.821  -114.029
1457.65     71.691  -115.517
1478.85     71.617  -116.795
1500.36     71.614  -118.171
1522.19     71.646  -119.904
1544.33     71.649  -121.963
1566.79     71.615  -124.158
1589.58     71.548  -126.262
1612.70     71.495  -128.095
1636.16     71.537  -129.992
1659.95     71.640  -132.581
1684.10     71.709  -136.025
1708.60     71.653  -139.993
1733.45     71.425  -143.691
1758.66     71.085  -146.266
1784.24     70.731  -147.686
1810.19     70.456  -148.271
1836.52     70.335  -148.453
1863.24     70.357  -148.969
1890.34     70.497  -150.042
1917.83     70.689  -151.732
1945.73     70.846  -154.105
1974.03     70.958  -156.827
2002.74     71.008  -159.810
2031.87     70.984  -162.945
2061.43     70.914  -165.859
2091.41     70.814  -168.491
2121.83     70.714  -170.861
2152.69     70.650  -172.898
2184.01     70.632  -174.746
2215.77     70.659  -176.768
2248.00     70.712  -179.238
2280.70     70.751   177.812
2313.87     70.736   174.414
2347.53     70.662   170.833
2381.68     70.525   167.564
2416.32     70.323   164.914
2451.46     70.091   162.966
2487.12     69.886   161.582
2523.30     69.751   160.593
2560.00     69.722   159.809
2597.24     69.793   158.736
2635.01     69.893   157.109
2673.34     69.957   154.945
2712.23     69.939   152.099
2751.68     69.805   148.854
2791.70     69.612   145.873
2832.31     69.450   143.416
2873.50     69.355   141.405
2915.30     69.350   139.762
2957.70     69.436   138.342
3000.72     69.564   136.820
3044.37     69.683   134.859
3088.65     69.739   132.547
3133.58     69.740   130.464
3179.16     69.794   128.268
3225.40     69.795   125.554
3272.31     69.731   123.132
3319.91     69.664   121.083
3368.20     69.620   119.131
3417.19     69.595   117.211
3466.89     69.585   115.163
3517.32     69.555   112.866
3568.48     69.477   110.689
3620.39     69.389   108.864
3673.05     69.304   107.233
3726.47     69.241   105.724
3780.67     69.220   104.048
3835.67     69.173   102.075
3891.46     69.073   100.146
3948.06     68.933    98.479
4005.49     68.766    97.301
4063.75     68.655    96.480
4122.86     68.622    95.423
4182.82     68.613    93.907
4243.66     68.607    91.974
4305.39     68.565    89.870
4368.01     68.470    87.958
4431.55     68.359    86.251
4496.01     68.250    84.544
4561.40     68.120    82.724
4627.75     67.965    80.836
4695.06     67.790    79.014
4763.35     67.599    77.475
4832.64     67.435    76.272
4902.93     67.328    74.951
4974.24     67.175    72.981
5046.60     66.910    71.381
5120.00     66.646    70.085
5194.47     66.378    68.664
5270.03     66.055    67.250
5346.68     65.639    66.180
5424.45     65.169    65.766
5503.35     64.689    66.185
5583.40     64.247    67.240
5664.61     63.859    68.471
5747.01     63.477    69.828
5830.60     63.108    71.499
5915.41     62.807    73.502
6001.45     62.602    75.710
6088.74     62.496    77.732
6177.30     62.439    79.395
6267.15     62.367    80.827
6358.31     62.293    82.094
6450.80     62.233    83.321
6544.62     62.186    84.440
6639.82     62.190    85.277
6736.40     62.189    85.857
6834.38     62.102    86.517
6933.79     61.982    87.862
7034.64     61.885    89.900
7136.96     61.839    92.271
7240.77     61.900    94.901
7346.09     62.110    97.352
7452.94     62.422    99.056
7561.35     62.748    99.925
7671.33     63.034   100.088
7782.91     63.208    99.808
7896.12     63.234    99.422
8010.97     63.146    99.286
8127.49     62.982    99.721
8245.71     62.824   100.649
8365.65     62.768   101.708
8487.33     62.845   102.500
8610.78     63.013   102.597
8736.03     63.201   102.046
8863.09     63.370   101.069
8992.01     63.468    99.671
9122.80     63.442    98.307
9255.50     63.291    97.596
9390.12     63.053    97.647
9526.70     62.785    98.218
9665.27     62.515    99.101
9805.86     62.266   100.015
9948.49     62.047   100.443
10093.2     61.781   100.439
10240.0     61.400   100.754
10388.9     60.933   102.094
10540.1     60.479   104.785
10693.4     60.172   108.687
10848.9     60.130   113.149
11006.7     60.374   117.153
11166.8     60.781   119.973
11329.2     61.201   121.486
11494.0     61.543   121.911
11661.2     61.781   121.612
11830.8     61.926   120.892
12002.9     62.001   119.932
12177.5     62.022   118.796
12354.6     61.973   117.529
12534.3     61.831   116.243
12716.6     61.595   115.046
12901.6     61.260   114.071
13089.2     60.838   113.343
13279.6     60.335   112.892
13472.8     59.771   112.883
13668.8     59.146   113.275
13867.6     58.433   114.122
14069.3     57.634   115.846
14273.9     56.781   118.645
14481.5     55.943   122.433
14692.2     55.217   127.020
14905.9     54.659   131.986
15122.7     54.271   137.020
15342.7     54.024   141.969
15565.8     53.879   146.558
15792.2     53.771   150.686
16021.9     53.659   154.568
16255.0     53.550   158.414
16491.4     53.442   162.430
16731.3     53.349   166.793
16974.7     53.295   171.253
17221.6     53.292   175.443
17472.1     53.302   179.281
17726.2     53.280  -177.383
17984.0     53.227  -174.547
18245.6     53.124  -171.800
18511.0     52.970  -169.039
18780.2     52.774  -166.481
19053.4     52.519  -164.074
19330.5     52.216  -161.569
19611.7     51.890  -158.851
19897.0     51.577  -155.841
20186.4     51.294  -152.473
20480.0     51.038  -149.033
20777.9     50.805  -145.792
21080.1     50.532  -142.718
21386.7     50.183  -139.669
21697.8     49.778  -136.217
22013.4     49.310  -131.870
22333.6     48.793  -126.485
22658.4     48.296  -120.119
22988.0     47.899  -113.171
23322.4     47.639  -106.352
23661.6     47.477   -99.886
24005.8     47.372   -93.566
24355.0     47.317   -87.182
24709.2     47.311   -80.303
25068.6     47.353   -72.778
25433.2     47.439   -65.254
25803.2     47.522   -58.507
26178.5     47.545   -52.883
26559.3     47.531   -48.323
26945.6     47.517   -44.534
27337.5     47.521   -41.106
27735.2     47.507   -37.622
28138.6     47.370   -33.706
28547.9     47.052   -28.735
28963.1     46.578   -22.346
29384.4     46.049   -14.865
29811.8     45.633    -7.018
30245.4     45.375     0.015
30685.3     45.225     5.910
31131.7     45.168    11.554
31584.5     45.157    17.395
32043.9     45.168    23.825
32510.0     45.268    31.272
32982.8     45.443    39.252
33462.6     45.623    47.134
33949.3     45.851    54.824
34443.1     46.227    62.460
34944.1     46.806    69.675
35452.4     47.597    75.486
35968.0     48.526    79.227
36491.2     49.469    80.624
37022.0     50.308    79.279
37560.5     50.996    74.938
38106.8     51.422    69.662
38661.1     51.684    64.010
39223.4     51.834    60.637
