Freq[Hz]     dBSPL  Phase[Deg]
Freq[Hz]     dBSPL  Phase[Deg]
5.00000    -11.277   -12.483
5.07273    -10.922   -12.571
5.14651    -10.537   -12.665
5.22137    -10.106   -12.768
5.29732     -9.656   -12.877
5.37437     -9.186   -12.990
5.45254     -8.716   -13.105
5.53185     -8.246   -13.222
5.61231     -7.776   -13.341
5.69394     -7.306   -13.461
5.77676     -6.836   -13.583
5.86079     -6.366   -13.707
5.94604     -5.896   -13.833
6.03252     -5.426   -13.960
6.12027     -4.956   -14.089
6.20929     -4.486   -14.221
6.29961     -4.015   -14.354
6.39124     -3.545   -14.489
6.48420     -3.075   -14.626
6.57851     -2.605   -14.765
6.67420     -2.135   -14.906
6.77128     -1.665   -15.049
6.86977     -1.194   -15.194
6.96969     -0.724   -15.341
7.07107     -0.254   -15.491
7.17392      0.217   -15.642
7.27827      0.687   -15.796
7.38413      1.157   -15.952
7.49154      1.628   -16.111
7.60050      2.098   -16.271
7.71105      2.568   -16.434
7.82321      3.039   -16.600
7.93701      3.509   -16.767
8.05245      3.980   -16.938
8.16958      4.450   -17.110
8.28841      4.921   -17.286
8.40896      5.392   -17.463
8.53128      5.862   -17.644
8.65537      6.333   -17.827
8.78126      6.804   -18.013
8.90899      7.274   -18.201
9.03857      7.745   -18.392
9.17004      8.216   -18.586
9.30342      8.687   -18.783
9.43874      9.158   -18.983
9.57603      9.629   -19.185
9.71532     10.100   -19.391
9.85663     10.571   -19.600
10.0000     11.042   -19.811
10.1455     11.513   -20.026
10.2930     11.984   -20.244
10.4427     12.455   -20.465
10.5946     12.927   -20.690
10.7487     13.398   -20.917
10.9051     13.869   -21.148
11.0637     14.341   -21.383
11.2246     14.812   -21.621
11.3879     15.284   -21.862
11.5535     15.755   -22.107
11.7216     16.227   -22.356
11.8921     16.699   -22.608
12.0650     17.171   -22.864
12.2405     17.642   -23.124
12.4186     18.114   -23.387
12.5992     18.587   -23.655
12.7825     19.059   -23.926
12.9684     19.531   -24.202
13.1570     20.003   -24.481
13.3484     20.476   -24.765
13.5426     20.948   -25.053
13.7395     21.421   -25.345
13.9394     21.893   -25.641
14.1421     22.366   -25.942
14.3478     22.839   -26.248
14.5565     23.312   -26.558
14.7683     23.785   -26.872
14.9831     24.258   -27.192
15.2010     24.732   -27.516
15.4221     25.205   -27.845
15.6464     25.679   -28.179
15.8740     26.153   -28.518
16.1049     26.626   -28.862
16.3392     27.100   -29.211
16.5768     27.575   -29.565
16.8179     28.049   -29.925
17.0626     28.523   -30.291
17.3107     28.998   -30.662
17.5625     29.473   -31.038
17.8180     29.948   -31.420
18.0771     30.423   -31.809
18.3401     30.899   -32.203
18.6068     31.374   -32.603
18.8775     31.850   -33.009
19.1521     32.326   -33.422
19.4306     32.802   -33.841
19.7133     33.277   -34.280
20.0000     33.747   -34.757
20.2909     34.207   -35.275
20.5860     34.652   -35.803
20.8855     35.086   -36.219
21.1893     35.513   -36.466
21.4975     35.939   -36.622
21.8102     36.376   -36.760
22.1274     36.828   -36.934
22.4492     37.298   -37.167
22.7758     37.784   -37.435
23.1071     38.283   -37.790
23.4432     38.791   -38.248
23.7841     39.303   -38.878
24.1301     39.811   -39.791
24.4811     40.312   -40.858
24.8372     40.802   -41.883
25.1984     41.281   -42.781
25.5649     41.754   -43.497
25.9368     42.224   -44.126
26.3141     42.697   -44.792
26.6968     43.172   -45.555
27.0851     43.651   -46.455
27.4791     44.132   -47.453
27.8788     44.612   -48.466
28.2843     45.091   -49.413
28.6957     45.568   -50.302
29.1131     46.045   -51.193
29.5365     46.522   -52.121
29.9661     46.999   -53.132
30.4020     47.476   -54.166
30.8442     47.951   -55.191
31.2929     48.425   -56.244
31.7480     48.896   -57.345
32.2098     49.363   -58.548
32.6783     49.828   -59.838
33.1536     50.292   -60.963
33.6359     50.761   -61.774
34.1251     51.241   -62.241
34.6215     51.740   -62.723
35.1250     52.258   -63.499
35.6359     52.789   -64.663
36.1543     53.323   -66.008
36.6802     53.851   -67.387
37.2137     54.374   -68.697
37.7550     54.892   -69.947
38.3041     55.409   -71.282
38.8613     55.928   -72.895
39.4265     56.448   -74.593
40.0000     56.966   -76.197
40.5818     57.483   -77.601
41.1721     58.002   -78.962
41.7710     58.522   -80.452
42.3785     59.042   -82.201
42.9949     59.559   -84.202
43.6203     60.066   -86.352
44.2548     60.563   -88.514
44.8985     61.049   -90.551
45.5515     61.529   -92.401
46.2141     62.007   -94.118
46.8863     62.489   -95.807
47.5683     62.977   -97.554
48.2602     63.471   -99.417
48.9621     63.971  -101.403
49.6743     64.475  -103.485
50.3968     64.980  -105.643
51.1299     65.484  -107.858
51.8736     65.986  -110.117
52.6281     66.484  -112.428
53.3936     66.978  -114.806
54.1702     67.467  -117.263
54.9581     67.951  -119.792
55.7575     68.429  -122.398
56.5685     68.902  -125.089
57.3914     69.368  -127.839
58.2261     69.828  -130.636
59.0730     70.278  -133.499
59.9323     70.719  -136.447
60.8040     71.147  -139.479
61.6884     71.563  -142.579
62.5857     71.968  -145.741
63.4960     72.362  -148.961
64.4196     72.740  -152.228
65.3566     73.101  -155.539
66.3073     73.445  -158.895
67.2717     73.776  -162.288
68.2502     74.096  -165.706
69.2429     74.406  -169.160
70.2501     74.702  -172.663
71.2719     74.976  -176.216
72.3086     75.224  -179.783
73.3603     75.448   176.692
74.4274     75.650   173.231
75.5099     75.836   169.838
76.6083     76.010   166.497
77.7226     76.172   163.181
78.8531     76.320   159.889
80.0000     76.453   156.625
81.1636     76.572   153.414
82.3442     76.678   150.281
83.5419     76.771   147.218
84.7570     76.851   144.228
85.9899     76.921   141.319
87.2406     76.982   138.497
88.5096     77.035   135.759
89.7970     77.084   133.101
91.1031     77.131   130.511
92.4282     77.177   127.970
93.7726     77.220   125.481
95.1366     77.259   123.041
96.5204     77.294   120.640
97.9243     77.324   118.280
99.3486     77.347   115.971
100.794     77.366   113.716
102.260     77.381   111.522
103.747     77.393   109.400
105.256     77.408   107.344
106.787     77.425   105.317
108.340     77.444   103.289
109.916     77.458   101.273
111.515     77.466    99.281
113.137     77.465    97.331
114.783     77.460    95.447
116.452     77.454    93.627
118.146     77.449    91.843
119.865     77.443    90.084
121.608     77.434    88.357
123.377     77.421    86.677
125.171     77.406    85.064
126.992     77.392    83.508
128.839     77.382    81.994
130.713     77.376    80.506
132.615     77.372    79.022
134.543     77.367    77.535
136.500     77.358    76.066
138.486     77.346    74.632
140.500     77.335    73.240
142.544     77.325    71.889
144.617     77.318    70.568
146.721     77.315    69.263
148.855     77.312    67.966
151.020     77.309    66.675
153.217     77.305    65.393
155.445     77.299    64.125
157.706     77.293    62.862
160.000     77.283    61.605
162.327     77.267    60.380
164.688     77.249    59.206
167.084     77.231    58.095
169.514     77.220    57.039
171.980     77.217    56.001
174.481     77.217    54.952
177.019     77.220    53.885
179.594     77.220    52.798
182.206     77.214    51.709
184.856     77.206    50.643
187.545     77.195    49.601
190.273     77.183    48.591
193.041     77.171    47.623
195.849     77.161    46.687
198.697     77.154    45.772
201.587     77.150    44.853
204.520     77.143    43.923
207.494     77.128    43.031
210.512     77.112    42.227
213.574     77.104    41.530
216.681     77.115    40.887
219.833     77.148    40.185
223.030     77.191    39.333
226.274     77.226    38.304
229.565     77.238    37.179
232.905     77.225    36.098
236.292     77.198    35.143
239.729     77.171    34.342
243.216     77.157    33.657
246.754     77.157    33.003
250.343     77.168    32.332
253.984     77.183    31.643
257.678     77.206    30.947
261.426     77.239    30.193
265.229     77.273    29.330
269.087     77.298    28.373
273.001     77.307    27.366
276.972     77.296    26.392
281.000     77.275    25.561
285.088     77.265    24.884
289.234     77.275    24.253
293.441     77.304    23.546
297.709     77.339    22.704
302.040     77.365    21.749
306.433     77.377    20.754
310.890     77.373    19.787
315.412     77.358    18.913
320.000     77.345    18.127
324.655     77.338    17.354
329.377     77.334    16.563
334.168     77.335    15.740
339.028     77.333    14.876
343.959     77.322    14.027
348.962     77.311    13.229
354.038     77.301    12.430
359.188     77.286    11.629
364.412     77.269    10.865
369.713     77.252    10.090
375.090     77.229     9.315
380.546     77.206     8.600
386.081     77.187     7.894
391.697     77.169     7.188
397.394     77.143     6.475
403.175     77.099     5.827
409.039     77.054     5.382
414.989     77.036     5.078
421.025     77.046     4.786
427.149     77.085     4.426
433.362     77.142     3.882
439.665     77.190     3.111
446.060     77.214     2.228
452.548     77.221     1.344
459.131     77.213     0.465
465.809     77.192    -0.368
472.584     77.169    -1.143
479.458     77.138    -1.900
486.432     77.091    -2.574
493.507     77.042    -3.046
500.686     77.017    -3.309
507.968     77.027    -3.517
515.357     77.066    -3.774
522.853     77.129    -4.111
530.458     77.209    -4.610
538.174     77.293    -5.302
546.002     77.374    -6.203
553.943     77.438    -7.285
562.001     77.480    -8.437
570.175     77.499    -9.620
578.469     77.484   -10.732
586.883     77.457   -11.649
595.419     77.439   -12.434
604.080     77.421   -13.229
612.866     77.403   -14.030
621.780     77.388   -14.712
630.824     77.382   -15.272
640.000     77.400   -15.777
649.309     77.448   -16.312
658.753     77.509   -17.082
668.335     77.554   -18.127
678.056     77.565   -19.298
687.919     77.543   -20.369
697.925     77.524   -21.186
708.077     77.553   -22.030
718.376     77.576   -23.281
728.825     77.510   -24.497
739.426     77.437   -25.111
750.181     77.442   -25.494
761.093     77.497   -26.158
772.163     77.552   -27.087
783.394     77.600   -28.183
794.789     77.623   -29.491
806.349     77.604   -30.848
818.078     77.557   -32.135
829.977     77.489   -33.287
842.050     77.427   -34.127
854.298     77.412   -34.754
866.724     77.437   -35.416
879.330     77.486   -36.190
892.120     77.555   -37.231
905.097     77.603   -38.633
918.262     77.590   -40.168
931.618     77.541   -41.600
945.169     77.494   -42.816
958.917     77.463   -43.776
972.864     77.464   -44.758
987.015     77.480   -45.979
1001.37     77.477   -47.311
1015.94     77.458   -48.761
1030.71     77.420   -50.349
1045.71     77.351   -51.841
1060.92     77.274   -53.127
1076.35     77.191   -54.283
1092.00     77.083   -55.306
1107.89     76.977   -56.021
1124.00     76.923   -56.550
1140.35     76.918   -57.176
1156.94     76.951   -57.861
1173.77     77.019   -58.812
1190.84     77.071   -60.198
1208.16     77.079   -61.658
1225.73     77.075   -63.106
1243.56     77.060   -64.643
1261.65     77.027   -66.126
1280.00     76.995   -67.541
1298.62     76.961   -68.904
1317.51     76.945   -70.226
1336.67     76.946   -71.641
1356.11     76.931   -73.097
1375.84     76.906   -74.516
1395.85     76.865   -75.893
1416.15     76.809   -77.081
1436.75     76.780   -78.191
1457.65     76.773   -79.363
1478.85     76.788   -80.489
1500.36     76.834   -81.738
1522.19     76.900   -83.191
1544.33     76.983   -84.803
1566.79     77.055   -86.745
1589.58     77.092   -88.852
1612.70     77.090   -90.824
1636.16     77.088   -92.679
1659.95     77.120   -94.599
1684.10     77.143   -96.742
1708.60     77.134   -99.066
1733.45     77.098  -101.344
1758.66     77.032  -103.372
1784.24     76.965  -105.113
1810.19     76.922  -106.607
1836.52     76.917  -107.872
1863.24     76.965  -109.151
1890.34     77.063  -110.790
1917.83     77.202  -112.887
1945.73     77.351  -115.462
1974.03     77.456  -118.526
2002.74     77.485  -121.868
2031.87     77.425  -125.159
2061.43     77.294  -128.161
2091.41     77.136  -130.785
2121.83     76.985  -133.037
2152.69     76.866  -134.929
2184.01     76.793  -136.615
2215.77     76.749  -138.434
2248.00     76.708  -140.517
2280.70     76.679  -142.749
2313.87     76.670  -145.035
2347.53     76.662  -147.266
2381.68     76.644  -149.240
2416.32     76.627  -150.885
2451.46     76.624  -152.342
2487.12     76.655  -153.773
2523.30     76.739  -155.347
2560.00     76.867  -157.270
2597.24     77.004  -159.595
2635.01     77.104  -162.262
2673.34     77.135  -165.175
2712.23     77.095  -168.079
2751.68     77.010  -170.701
2791.70     76.928  -172.931
2832.31     76.893  -174.786
2873.50     76.924  -176.422
2915.30     77.017  -178.093
2957.70     77.142   179.978
3000.72     77.252   177.652
3044.37     77.293   174.948
3088.65     77.235   172.150
3133.58     77.117   169.835
3179.16     77.034   167.760
3225.40     76.904   165.942
3272.31     76.781   164.850
3319.91     76.723   164.283
3368.20     76.757   163.818
3417.19     76.868   163.008
3466.89     77.006   161.670
3517.32     77.123   159.952
3568.48     77.191   158.157
3620.39     77.227   156.599
3673.05     77.268   155.352
3726.47     77.346   154.198
3780.67     77.462   152.860
3835.67     77.575   151.136
3891.46     77.647   149.121
3948.06     77.672   147.118
4005.49     77.668   145.291
4063.75     77.662   143.633
4122.86     77.662   142.055
4182.82     77.649   140.509
4243.66     77.614   139.105
4305.39     77.574   137.969
4368.01     77.565   137.050
4431.55     77.603   136.136
4496.01     77.669   134.967
4561.40     77.715   133.457
4627.75     77.706   131.850
4695.06     77.649   130.497
4763.35     77.587   129.552
4832.64     77.571   128.906
4902.93     77.630   128.071
4974.24     77.655   126.511
5046.60     77.572   125.243
5120.00     77.511   124.383
5194.47     77.477   123.550
5270.03     77.460   122.603
5346.68     77.434   121.485
5424.45     77.375   120.288
5503.35     77.283   119.154
5583.40     77.164   118.165
5664.61     77.017   117.364
5747.01     76.847   116.848
5830.60     76.674   116.722
5915.41     76.531   116.912
6001.45     76.429   117.184
6088.74     76.353   117.361
6177.30     76.279   117.426
6267.15     76.195   117.461
6358.31     76.099   117.548
6450.80     75.998   117.743
6544.62     75.900   118.068
6639.82     75.811   118.470
6736.40     75.719   118.929
6834.38     75.623   119.559
6933.79     75.541   120.348
7034.64     75.466   121.176
7136.96     75.387   122.127
7240.77     75.332   123.241
7346.09     75.310   124.286
7452.94     75.299   125.198
7561.35     75.297   126.117
7671.33     75.315   126.982
7782.91     75.332   127.735
7896.12     75.332   128.518
8010.97     75.330   129.362
8127.49     75.336   130.182
8245.71     75.343   130.863
8365.65     75.322   131.330
8487.33     75.248   131.814
8610.78     75.135   132.563
8736.03     74.998   133.591
8863.09     74.837   134.992
8992.01     74.677   136.927
9122.80     74.560   139.310
9255.50     74.500   141.878
9390.12     74.486   144.528
9526.70     74.529   147.272
9665.27     74.645   150.032
9805.86     74.845   152.672
9948.49     75.128   155.064
10093.2     75.480   157.119
10240.0     75.891   158.596
10388.9     76.306   159.277
10540.1     76.673   159.283
10693.4     76.970   158.752
10848.9     77.168   157.861
11006.7     77.255   156.950
11166.8     77.252   156.300
11329.2     77.189   156.031
11494.0     77.089   156.160
11661.2     76.981   156.738
11830.8     76.893   157.645
12002.9     76.819   158.708
12177.5     76.755   159.952
12354.6     76.713   161.256
12534.3     76.674   162.547
12716.6     76.649   163.898
12901.6     76.645   165.207
13089.2     76.646   166.482
13279.6     76.662   167.711
13472.8     76.677   168.790
13668.8     76.676   169.812
13867.6     76.657   170.799
14069.3     76.606   171.799
14273.9     76.527   172.942
14481.5     76.423   174.244
14692.2     76.307   175.737
14905.9     76.198   177.405
15122.7     76.104   179.160
15342.7     76.034  -179.057
15565.8     75.983  -177.271
15792.2     75.943  -175.478
16021.9     75.921  -173.700
16255.0     75.913  -171.990
16491.4     75.910  -170.432
16731.3     75.893  -169.061
16974.7     75.840  -167.812
17221.6     75.736  -166.560
17472.1     75.577  -165.167
17726.2     75.364  -163.525
17984.0     75.099  -161.555
18245.6     74.797  -159.233
18511.0     74.486  -156.546
18780.2     74.191  -153.563
19053.4     73.945  -150.437
19330.5     73.762  -147.330
19611.7     73.636  -144.387
19897.0     73.549  -141.645
20186.4     73.473  -139.095
20480.0     73.380  -136.662
20777.9     73.256  -134.178
21080.1     73.097  -131.522
21386.7     72.908  -128.606
21697.8     72.690  -125.389
22013.4     72.456  -121.845
22333.6     72.215  -117.929
22658.4     71.974  -113.706
22988.0     71.749  -109.231
23322.4     71.544  -104.539
23661.6     71.364   -99.729
24005.8     71.221   -94.813
24355.0     71.112   -89.752
24709.2     71.037   -84.576
25068.6     70.990   -79.313
25433.2     70.954   -73.985
25803.2     70.914   -68.666
26178.5     70.867   -63.394
26559.3     70.822   -58.099
26945.6     70.790   -52.688
27337.5     70.782   -47.090
27735.2     70.807   -41.240
28138.6     70.869   -35.146
28547.9     70.972   -28.892
28963.1     71.120   -22.609
29384.4     71.321   -16.493
29811.8     71.567   -10.758
30245.4     71.836    -5.530
30685.3     72.095    -0.772
31131.7     72.320     3.703
31584.5     72.509     8.143
32043.9     72.678    12.748
32510.0     72.851    17.561
32982.8     73.044    22.483
33462.6     73.253    27.392
33949.3     73.468    32.203
34443.1     73.674    36.883
34944.1     73.858    41.459
35452.4     74.018    45.974
35968.0     74.143    50.489
36491.2     74.227    55.140
37022.0     74.282    60.101
37560.5     74.338    65.503
38106.8     74.400    71.317
38661.1     74.496    77.506
39223.4     74.591    83.852
