Freq[Hz]     dBSPL  Phase[Deg]
Freq[Hz]     dBSPL  Phase[Deg]
5.00000    -12.082   -11.132
5.07273    -11.725   -11.227
5.14651    -11.337   -11.330
5.22137    -10.903   -11.445
5.29732    -10.450   -11.567
5.37437     -9.976   -11.695
5.45254     -9.502   -11.826
5.53185     -9.027   -11.958
5.61231     -8.553   -12.092
5.69394     -8.079   -12.228
5.77676     -7.605   -12.367
5.86079     -7.131   -12.507
5.94604     -6.657   -12.649
6.03252     -6.183   -12.793
6.12027     -5.709   -12.940
6.20929     -5.235   -13.088
6.29961     -4.761   -13.239
6.39124     -4.286   -13.392
6.48420     -3.812   -13.547
6.57851     -3.338   -13.705
6.67420     -2.864   -13.864
6.77128     -2.390   -14.026
6.86977     -1.915   -14.191
6.96969     -1.441   -14.357
7.07107     -0.967   -14.527
7.17392     -0.492   -14.698
7.27827     -0.018   -14.872
7.38413      0.456   -15.049
7.49154      0.931   -15.228
7.60050      1.405   -15.410
7.71105      1.880   -15.595
7.82321      2.354   -15.782
7.93701      2.829   -15.972
8.05245      3.303   -16.165
8.16958      3.778   -16.360
8.28841      4.252   -16.559
8.40896      4.727   -16.760
8.53128      5.202   -16.964
8.65537      5.676   -17.171
8.78126      6.151   -17.382
8.90899      6.626   -17.595
9.03857      7.101   -17.811
9.17004      7.575   -18.031
9.30342      8.050   -18.254
9.43874      8.525   -18.480
9.57603      9.000   -18.709
9.71532      9.475   -18.942
9.85663      9.950   -19.178
10.0000     10.425   -19.418
10.1455     10.900   -19.661
10.2930     11.376   -19.907
10.4427     11.851   -20.158
10.5946     12.326   -20.412
10.7487     12.801   -20.669
10.9051     13.277   -20.931
11.0637     13.752   -21.196
11.2246     14.228   -21.465
11.3879     14.703   -21.738
11.5535     15.179   -22.016
11.7216     15.655   -22.297
11.8921     16.131   -22.582
12.0650     16.606   -22.872
12.2405     17.082   -23.166
12.4186     17.558   -23.464
12.5992     18.034   -23.767
12.7825     18.511   -24.074
12.9684     18.987   -24.385
13.1570     19.463   -24.702
13.3484     19.940   -25.023
13.5426     20.416   -25.348
13.7395     20.893   -25.679
13.9394     21.369   -26.014
14.1421     21.846   -26.355
14.3478     22.323   -26.700
14.5565     22.800   -27.051
14.7683     23.277   -27.407
14.9831     23.754   -27.768
15.2010     24.232   -28.134
15.4221     24.709   -28.506
15.6464     25.187   -28.884
15.8740     25.665   -29.267
16.1049     26.143   -29.656
16.3392     26.621   -30.051
16.5768     27.099   -30.452
16.8179     27.577   -30.859
17.0626     28.056   -31.272
17.3107     28.535   -31.691
17.5625     29.013   -32.116
17.8180     29.493   -32.549
18.0771     29.972   -32.987
18.3401     30.451   -33.432
18.6068     30.931   -33.885
18.8775     31.411   -34.344
19.1521     31.891   -34.810
19.4306     32.371   -35.283
19.7133     32.851   -35.777
20.0000     33.329   -36.309
20.2909     33.802   -36.876
20.5860     34.265   -37.434
20.8855     34.715   -37.844
21.1893     35.151   -38.055
21.4975     35.583   -38.191
21.8102     36.022   -38.372
22.1274     36.477   -38.662
22.4492     36.952   -39.045
22.7758     37.446   -39.451
23.1071     37.953   -39.900
23.4432     38.465   -40.377
23.7841     38.977   -40.994
24.1301     39.487   -41.919
24.4811     39.989   -43.035
24.8372     40.480   -44.136
25.1984     40.960   -45.124
25.5649     41.431   -45.930
25.9368     41.898   -46.640
26.3141     42.367   -47.374
26.6968     42.840   -48.193
27.0851     43.316   -49.134
27.4791     43.794   -50.167
27.8788     44.273   -51.215
28.2843     44.752   -52.196
28.6957     45.229   -53.126
29.1131     45.707   -54.065
29.5365     46.184   -55.050
29.9661     46.660   -56.128
30.4020     47.136   -57.224
30.8442     47.610   -58.303
31.2929     48.084   -59.400
31.7480     48.558   -60.547
32.2098     49.029   -61.822
32.6783     49.495   -63.226
33.1536     49.950   -64.479
33.6359     50.401   -65.388
34.1251     50.858   -65.885
34.6215     51.344   -66.323
35.1250     51.862   -67.018
35.6359     52.403   -68.123
36.1543     52.948   -69.468
36.6802     53.486   -70.907
37.2137     54.015   -72.313
37.7550     54.535   -73.673
38.3041     55.053   -75.111
38.8613     55.575   -76.818
39.4265     56.094   -78.605
40.0000     56.608   -80.284
40.5818     57.118   -81.735
41.1721     57.631   -83.117
41.7710     58.150   -84.615
42.3785     58.675   -86.377
42.9949     59.199   -88.411
43.6203     59.717   -90.627
44.2548     60.222   -92.888
44.8985     60.714   -95.049
45.5515     61.194   -97.028
46.2141     61.668   -98.865
46.8863     62.143  -100.657
47.5683     62.624  -102.486
48.2602     63.113  -104.421
48.9621     63.609  -106.473
49.6743     64.110  -108.613
50.3968     64.613  -110.825
51.1299     65.117  -113.093
51.8736     65.620  -115.408
52.6281     66.121  -117.786
53.3936     66.618  -120.250
54.1702     67.110  -122.814
54.9581     67.594  -125.461
55.7575     68.070  -128.182
56.5685     68.538  -130.980
57.3914     68.998  -133.827
58.2261     69.450  -136.705
59.0730     69.896  -139.637
59.9323     70.334  -142.652
60.8040     70.762  -145.752
61.6884     71.179  -148.925
62.5857     71.587  -152.170
63.4960     71.983  -155.492
64.4196     72.362  -158.878
65.3566     72.721  -162.320
66.3073     73.061  -165.808
67.2717     73.384  -169.323
68.2502     73.696  -172.844
69.2429     73.998  -176.375
70.2501     74.291  -179.934
71.2719     74.566   176.462
72.3086     74.817   172.832
73.3603     75.044   169.221
74.4274     75.249   165.649
75.5099     75.436   162.127
76.6083     75.608   158.646
77.7226     75.766   155.191
78.8531     75.910   151.772
80.0000     76.038   148.392
81.1636     76.152   145.077
82.3442     76.254   141.854
83.5419     76.346   138.704
84.7570     76.429   135.615
85.9899     76.503   132.591
87.2406     76.568   129.630
88.5096     76.624   126.729
89.7970     76.674   123.896
91.1031     76.718   121.128
92.4282     76.760   118.415
93.7726     76.798   115.758
95.1366     76.830   113.158
96.5204     76.859   110.604
97.9243     76.883   108.092
99.3486     76.902   105.631
100.794     76.916   103.221
102.260     76.927   100.862
103.747     76.934    98.566
105.256     76.941    96.335
106.787     76.949    94.148
108.340     76.959    91.976
109.916     76.966    89.820
111.515     76.967    87.693
113.137     76.962    85.610
114.783     76.955    83.589
116.452     76.951    81.618
118.146     76.950    79.657
119.865     76.949    77.688
121.608     76.943    75.710
123.377     76.926    73.753
125.171     76.900    71.862
126.992     76.870    70.051
128.839     76.840    68.310
130.713     76.814    66.626
132.615     76.793    64.971
134.543     76.773    63.331
136.500     76.753    61.718
138.486     76.735    60.137
140.500     76.719    58.582
142.544     76.706    57.051
144.617     76.696    55.533
146.721     76.690    54.009
148.855     76.684    52.470
151.020     76.675    50.914
153.217     76.661    49.353
155.445     76.640    47.806
157.706     76.614    46.291
160.000     76.583    44.817
162.327     76.549    43.409
164.688     76.518    42.072
167.084     76.494    40.783
169.514     76.480    39.513
171.980     76.475    38.223
174.481     76.471    36.882
177.019     76.464    35.496
179.594     76.447    34.093
182.206     76.421    32.718
184.856     76.392    31.407
187.545     76.367    30.151
190.273     76.348    28.919
193.041     76.333    27.695
195.849     76.324    26.459
198.697     76.316    25.189
201.587     76.308    23.865
204.520     76.291    22.487
207.494     76.262    21.092
210.512     76.218    19.740
213.574     76.162    18.488
216.681     76.104    17.357
219.833     76.053    16.323
223.030     76.015    15.348
226.274     75.993    14.372
229.565     75.982    13.347
232.905     75.976    12.289
236.292     75.977    11.197
239.729     75.981    10.028
243.216     75.977     8.777
246.754     75.960     7.492
250.343     75.928     6.231
253.984     75.886     5.053
257.678     75.846     4.002
261.426     75.824     3.018
265.229     75.826     1.937
269.087     75.828     0.667
273.001     75.812    -0.724
276.972     75.773    -2.123
281.000     75.713    -3.379
285.088     75.661    -4.416
289.234     75.639    -5.371
293.441     75.646    -6.444
297.709     75.661    -7.738
302.040     75.655    -9.216
306.433     75.623   -10.727
310.890     75.573   -12.186
315.412     75.514   -13.591
320.000     75.455   -14.980
324.655     75.390   -16.432
329.377     75.311   -17.920
334.168     75.220   -19.362
339.028     75.117   -20.770
343.959     75.002   -22.142
348.962     74.873   -23.437
354.038     74.726   -24.614
359.188     74.569   -25.599
364.412     74.421   -26.376
369.713     74.301   -27.040
375.090     74.211   -27.719
380.546     74.139   -28.527
386.081     74.069   -29.479
391.697     73.983   -30.525
397.394     73.878   -31.646
403.175     73.743   -32.773
409.039     73.569   -33.747
414.989     73.372   -34.409
421.025     73.180   -34.647
427.149     73.031   -34.480
433.362     72.963   -34.143
439.665     72.975   -33.999
446.060     73.035   -34.278
452.548     73.098   -34.982
459.131     73.138   -35.998
465.809     73.147   -37.205
472.584     73.123   -38.454
479.458     73.085   -39.662
486.432     73.041   -40.918
493.507     72.975   -42.299
500.686     72.871   -43.720
507.968     72.722   -45.055
515.357     72.513   -46.119
522.853     72.276   -46.602
530.458     72.078   -46.454
538.174     71.962   -45.919
546.002     71.960   -45.264
553.943     72.063   -45.044
562.001     72.179   -45.678
570.175     72.223   -46.940
578.469     72.170   -48.445
586.883     72.034   -49.786
595.419     71.859   -50.682
604.080     71.713   -51.133
612.866     71.632   -51.371
621.780     71.596   -51.757
630.824     71.576   -52.362
640.000     71.538   -52.976
649.309     71.487   -53.395
658.753     71.468   -53.574
668.335     71.504   -53.659
678.056     71.609   -53.913
687.919     71.758   -54.683
697.925     71.900   -56.108
708.077     71.998   -58.211
718.376     71.960   -60.968
728.825     71.716   -63.414
739.426     71.399   -64.573
750.181     71.164   -64.824
761.093     71.042   -64.862
772.163     70.978   -64.924
783.394     70.961   -65.122
794.789     70.982   -65.575
806.349     71.007   -66.109
818.078     71.066   -66.708
829.977     71.160   -67.665
842.050     71.235   -68.991
854.298     71.297   -70.457
866.724     71.383   -72.213
879.330     71.470   -74.528
892.120     71.489   -77.245
905.097     71.411   -80.101
918.262     71.222   -82.781
931.618     70.924   -84.966
945.169     70.580   -86.507
958.917     70.281   -87.409
972.864     70.088   -88.319
987.015     69.943   -89.761
1001.37     69.745   -91.401
1015.94     69.484   -92.997
1030.71     69.137   -94.401
1045.71     68.689   -95.240
1060.92     68.244   -95.167
1076.35     67.951   -94.232
1092.00     67.855   -93.091
1107.89     67.916   -92.218
1124.00     68.080   -91.975
1140.35     68.197   -92.965
1156.94     68.132   -94.802
1173.77     67.899   -96.412
1190.84     67.572   -97.282
1208.16     67.243   -96.908
1225.73     67.056   -95.216
1243.56     67.082   -93.401
1261.65     67.258   -92.448
1280.00     67.460   -92.622
1298.62     67.583   -93.787
1317.51     67.626   -94.998
1336.67     67.650   -95.795
1356.11     67.698   -96.381
1375.84     67.811   -96.816
1395.85     67.981   -97.752
1416.15     68.128   -99.713
1436.75     68.155  -102.113
1457.65     68.063  -104.208
1478.85     67.935  -105.680
1500.36     67.812  -106.594
1522.19     67.736  -107.321
1544.33     67.727  -108.306
1566.79     67.682  -109.560
1589.58     67.562  -110.433
1612.70     67.495  -110.304
1636.16     67.611  -109.463
1659.95     67.937  -109.009
1684.10     68.393  -109.674
1708.60     68.875  -111.612
1733.45     69.295  -114.792
1758.66     69.548  -118.797
1784.24     69.622  -122.968
1810.19     69.596  -126.943
1836.52     69.500  -130.626
1863.24     69.358  -133.825
1890.34     69.235  -136.216
1917.83     69.182  -137.848
1945.73     69.230  -139.132
1974.03     69.367  -140.557
2002.74     69.532  -142.566
2031.87     69.703  -145.264
2061.43     69.888  -148.664
2091.41     70.029  -152.651
2121.83     70.123  -157.014
2152.69     70.176  -161.653
2184.01     70.127  -166.221
2215.77     70.003  -170.270
2248.00     69.899  -173.682
2280.70     69.865  -176.838
2313.87     69.909   179.764
2347.53     70.029   175.860
2381.68     70.148   170.992
2416.32     70.132   165.270
2451.46     69.956   159.386
2487.12     69.651   153.732
2523.30     69.246   148.731
2560.00     68.855   144.182
2597.24     68.547   139.256
2635.01     68.251   133.476
2673.34     67.882   126.644
2712.23     67.382   119.263
2751.68     66.778   112.306
2791.70     66.197   106.363
2832.31     65.715   101.398
2873.50     65.351    96.948
2915.30     65.064    92.660
2957.70     64.741    88.280
3000.72     64.353    83.693
3044.37     63.935    78.883
3088.65     63.509    73.825
3133.58     63.138    68.865
3179.16     62.896    63.319
3225.40     62.594    57.071
3272.31     62.252    50.828
3319.91     61.971    44.168
3368.20     61.787    36.529
3417.19     61.667    27.500
3466.89     61.558    16.991
3517.32     61.433     5.548
3568.48     61.299    -6.577
3620.39     61.165   -19.497
3673.05     61.062   -32.889
3726.47     61.023   -46.569
3780.67     61.039   -60.713
3835.67     61.043   -75.222
3891.46     60.970   -89.617
3948.06     60.891  -103.573
4005.49     60.884  -117.257
4063.75     60.913  -130.531
4122.86     61.024  -142.911
4182.82     61.297  -154.771
4243.66     61.634  -166.954
4305.39     61.888  -179.530
4368.01     62.047   168.101
4431.55     62.140   156.178
4496.01     62.131   144.652
4561.40     62.014   134.032
4627.75     61.856   124.580
4695.06     61.714   115.494
4763.35     61.593   106.296
4832.64     61.537    97.263
4902.93     61.622    87.647
4974.24     61.678    76.581
5046.60     61.572    66.113
5120.00     61.537    56.326
5194.47     61.578    46.173
5270.03     61.655    35.860
5346.68     61.750    25.083
5424.45     61.776    13.916
5503.35     61.749     3.068
5583.40     61.731    -7.785
5664.61     61.727   -18.883
5747.01     61.798   -30.339
5830.60     61.933   -42.815
5915.41     62.028   -56.359
6001.45     62.060   -70.675
6088.74     62.009   -85.718
6177.30     61.860  -101.331
6267.15     61.641  -117.530
6358.31     61.361  -134.357
6450.80     60.993  -151.533
6544.62     60.514  -168.560
6639.82     59.965   175.286
6736.40     59.408   160.546
6834.38     58.899   147.150
6933.79     58.543   134.700
7034.64     58.417   122.528
7136.96     58.474   109.691
7240.77     58.611    95.626
7346.09     58.735    80.454
7452.94     58.767    64.601
7561.35     58.644    48.526
7671.33     58.379    32.583
7782.91     58.072    16.703
7896.12     57.823     0.314
8010.97     57.643   -16.910
8127.49     57.536   -34.682
8245.71     57.502   -52.880
8365.65     57.485   -71.394
8487.33     57.492   -90.226
8610.78     57.578  -110.414
8736.03     57.648  -132.380
8863.09     57.599  -155.156
8992.01     57.385  -177.911
9122.80     56.930   160.349
9255.50     56.263   140.449
9390.12     55.464   121.897
9526.70     54.586   104.116
9665.27     53.720    86.833
9805.86     52.880    70.265
9948.49     52.156    55.795
10093.2     51.797    42.794
10240.0     51.776    29.413
10388.9     52.008    15.587
10540.1     52.515    -0.464
10693.4     53.028   -20.583
10848.9     53.331   -42.775
11006.7     53.569   -65.422
11166.8     53.801   -89.103
11329.2     53.915  -113.495
11494.0     53.977  -137.711
11661.2     54.115  -162.856
11830.8     54.140   170.085
12002.9     53.896   142.392
12177.5     53.542   114.407
12354.6     53.007    85.476
12534.3     52.107    57.302
12716.6     51.094    31.419
12901.6     50.071     6.941
13089.2     48.930   -15.959
13279.6     48.085   -37.501
13472.8     47.684   -60.069
13668.8     47.445   -84.152
13867.6     47.481  -109.683
14069.3     47.607  -137.473
14273.9     47.539  -166.224
14481.5     47.489   164.414
14692.2     47.365   133.826
14905.9     46.934   103.307
15122.7     46.239    72.119
15342.7     45.261    41.156
15565.8     44.156    14.128
15792.2     43.269    -9.198
16021.9     42.673   -29.521
16255.0     42.449   -47.722
16491.4     42.443   -67.851
16731.3     42.421   -93.548
16974.7     42.343  -126.281
17221.6     42.199  -164.965
17472.1     41.772   151.906
17726.2     40.988   107.403
17984.0     39.935    67.754
18245.6     38.835    34.196
18511.0     38.359     2.381
18780.2     38.883   -31.329
19053.4     39.630   -72.429
19330.5     39.900  -128.758
19611.7     39.565   159.668
19897.0     38.894    79.883
20186.4     38.474    -4.799
20480.0     38.699   -90.133
20777.9     39.540  -169.813
21080.1     40.434   117.363
21386.7     40.820    51.888
21697.8     40.661    -6.409
22013.4     40.174   -60.776
22333.6     39.481  -113.332
22658.4     38.639  -165.597
22988.0     37.666   138.808
23322.4     36.498    76.909
23661.6     34.971    14.890
24005.8     33.443   -43.565
24355.0     32.531   -80.228
24709.2     32.556   -98.992
25068.6     33.639  -108.850
25433.2     35.342  -108.445
25803.2     37.153  -119.089
26178.5     38.754  -152.492
26559.3     40.220   162.637
26945.6     41.525   105.407
27337.5     42.391    44.229
27735.2     42.870   -18.732
28138.6     42.941   -81.342
28547.9     42.429  -143.041
28963.1     41.611   155.154
29384.4     40.894    93.698
29811.8     40.401    33.073
30245.4     40.284   -27.523
30685.3     40.644   -88.544
31131.7     41.268  -150.650
31584.5     41.894   144.351
32043.9     42.403    75.214
32510.0     42.668     2.068
32982.8     42.657   -74.034
33462.6     42.424  -151.502
33949.3     42.030   130.764
34443.1     41.580    52.936
34944.1     40.887   -24.103
35452.4     39.822   -99.593
35968.0     38.468  -173.788
36491.2     36.924   114.364
37022.0     35.623    46.167
37560.5     35.307   -18.096
38106.8     35.821   -73.060
38661.1     36.929  -122.091
39223.4     37.756  -155.972
