Freq[Hz]     dBSPL  Phase[Deg]
Freq[Hz]     dBSPL  Phase[Deg]
5.00000    -11.217   -12.330
5.07273    -10.863   -12.418
5.14651    -10.477   -12.513
5.22137    -10.046   -12.617
5.29732     -9.597   -12.726
5.37437     -9.127   -12.840
5.45254     -8.657   -12.957
5.53185     -8.188   -13.074
5.61231     -7.718   -13.194
5.69394     -7.248   -13.315
5.77676     -6.778   -13.438
5.86079     -6.309   -13.563
5.94604     -5.839   -13.690
6.03252     -5.369   -13.818
6.12027     -4.899   -13.949
6.20929     -4.429   -14.081
6.29961     -3.959   -14.215
6.39124     -3.490   -14.351
6.48420     -3.020   -14.489
6.57851     -2.550   -14.629
6.67420     -2.080   -14.772
6.77128     -1.610   -14.916
6.86977     -1.140   -15.062
6.96969     -0.670   -15.211
7.07107     -0.200   -15.361
7.17392      0.270   -15.514
7.27827      0.740   -15.669
7.38413      1.210   -15.827
7.49154      1.680   -15.986
7.60050      2.151   -16.148
7.71105      2.621   -16.313
7.82321      3.091   -16.479
7.93701      3.561   -16.648
8.05245      4.031   -16.820
8.16958      4.502   -16.994
8.28841      4.972   -17.171
8.40896      5.442   -17.350
8.53128      5.913   -17.532
8.65537      6.383   -17.717
8.78126      6.854   -17.904
8.90899      7.324   -18.094
9.03857      7.795   -18.287
9.17004      8.265   -18.482
9.30342      8.736   -18.681
9.43874      9.206   -18.882
9.57603      9.677   -19.086
9.71532     10.148   -19.294
9.85663     10.619   -19.504
10.0000     11.089   -19.717
10.1455     11.560   -19.934
10.2930     12.031   -20.154
10.4427     12.502   -20.377
10.5946     12.973   -20.603
10.7487     13.444   -20.833
10.9051     13.915   -21.066
11.0637     14.386   -21.302
11.2246     14.858   -21.542
11.3879     15.329   -21.785
11.5535     15.800   -22.032
11.7216     16.272   -22.283
11.8921     16.743   -22.537
12.0650     17.215   -22.795
12.2405     17.686   -23.057
12.4186     18.158   -23.323
12.5992     18.630   -23.592
12.7825     19.102   -23.866
12.9684     19.574   -24.144
13.1570     20.046   -24.426
13.3484     20.518   -24.712
13.5426     20.990   -25.002
13.7395     21.462   -25.296
13.9394     21.935   -25.595
14.1421     22.407   -25.899
14.3478     22.880   -26.207
14.5565     23.353   -26.519
14.7683     23.826   -26.836
14.9831     24.298   -27.158
15.2010     24.772   -27.485
15.4221     25.245   -27.817
15.6464     25.718   -28.154
15.8740     26.192   -28.495
16.1049     26.665   -28.842
16.3392     27.139   -29.194
16.5768     27.613   -29.552
16.8179     28.087   -29.914
17.0626     28.561   -30.283
17.3107     29.036   -30.657
17.5625     29.510   -31.036
17.8180     29.985   -31.422
18.0771     30.460   -31.813
18.3401     30.935   -32.210
18.6068     31.410   -32.614
18.8775     31.886   -33.023
19.1521     32.362   -33.439
19.4306     32.838   -33.862
19.7133     33.312   -34.311
20.0000     33.780   -34.811
20.2909     34.235   -35.372
20.5860     34.672   -35.951
20.8855     35.097   -36.373
21.1893     35.512   -36.554
21.4975     35.930   -36.593
21.8102     36.365   -36.593
22.1274     36.821   -36.661
22.4492     37.300   -36.868
22.7758     37.798   -37.199
23.1071     38.308   -37.666
23.4432     38.821   -38.237
23.7841     39.330   -38.953
24.1301     39.830   -39.911
24.4811     40.320   -40.989
24.8372     40.800   -41.996
25.1984     41.274   -42.862
25.5649     41.746   -43.550
25.9368     42.219   -44.166
26.3141     42.693   -44.835
26.6968     43.169   -45.612
27.0851     43.644   -46.526
27.4791     44.120   -47.530
27.8788     44.595   -48.535
28.2843     45.070   -49.464
28.6957     45.546   -50.329
29.1131     46.024   -51.198
29.5365     46.504   -52.115
29.9661     46.984   -53.130
30.4020     47.463   -54.185
30.8442     47.938   -55.247
31.2929     48.407   -56.336
31.7480     48.869   -57.446
32.2098     49.327   -58.613
32.6783     49.786   -59.822
33.1536     50.255   -60.859
33.6359     50.739   -61.628
34.1251     51.236   -62.140
34.6215     51.744   -62.724
35.1250     52.259   -63.596
35.6359     52.777   -64.789
36.1543     53.303   -66.101
36.6802     53.832   -67.434
37.2137     54.361   -68.734
37.7550     54.885   -70.029
38.3041     55.402   -71.441
38.8613     55.913   -73.104
39.4265     56.423   -74.799
40.0000     56.937   -76.366
40.5818     57.456   -77.747
41.1721     57.977   -79.119
41.7710     58.496   -80.644
42.3785     59.010   -82.424
42.9949     59.518   -84.426
43.6203     60.017   -86.542
44.2548     60.510   -88.646
44.8985     60.998   -90.623
45.5515     61.483   -92.430
46.2141     61.969   -94.130
46.8863     62.457   -95.827
47.5683     62.949   -97.596
48.2602     63.446   -99.486
48.9621     63.946  -101.496
49.6743     64.449  -103.598
50.3968     64.953  -105.773
51.1299     65.457  -108.003
51.8736     65.957  -110.276
52.6281     66.454  -112.596
53.3936     66.946  -114.977
54.1702     67.433  -117.431
54.9581     67.916  -119.955
55.7575     68.394  -122.555
56.5685     68.867  -125.242
57.3914     69.335  -127.993
58.2261     69.796  -130.797
59.0730     70.248  -133.670
59.9323     70.689  -136.632
60.8040     71.118  -139.677
61.6884     71.534  -142.790
62.5857     71.939  -145.962
63.4960     72.332  -149.193
64.4196     72.709  -152.469
65.3566     73.068  -155.786
66.3073     73.411  -159.147
67.2717     73.741  -162.543
68.2502     74.059  -165.960
69.2429     74.367  -169.413
70.2501     74.661  -172.916
71.2719     74.934  -176.469
72.3086     75.181   179.967
73.3603     75.404   176.448
74.4274     75.607   172.994
75.5099     75.794   169.611
76.6083     75.968   166.279
77.7226     76.130   162.973
78.8531     76.278   159.696
80.0000     76.413   156.452
81.1636     76.534   153.267
82.3442     76.645   150.158
83.5419     76.745   147.105
84.7570     76.834   144.099
85.9899     76.911   141.153
87.2406     76.976   138.277
88.5096     77.031   135.481
89.7970     77.079   132.772
91.1031     77.124   130.139
92.4282     77.168   127.562
93.7726     77.208   125.040
95.1366     77.244   122.572
96.5204     77.275   120.149
97.9243     77.301   117.775
99.3486     77.322   115.458
100.794     77.339   113.196
102.260     77.353   110.990
103.747     77.365   108.844
105.256     77.377   106.754
106.787     77.390   104.691
108.340     77.401   102.638
109.916     77.407   100.609
111.515     77.406    98.620
113.137     77.399    96.690
114.783     77.389    94.841
116.452     77.381    93.055
118.146     77.376    91.297
119.865     77.372    89.555
121.608     77.364    87.831
123.377     77.352    86.142
125.171     77.336    84.517
126.992     77.320    82.955
128.839     77.307    81.444
130.713     77.298    79.966
132.615     77.293    78.498
134.543     77.288    77.032
136.500     77.282    75.581
138.486     77.275    74.145
140.500     77.268    72.727
142.544     77.259    71.336
144.617     77.251    69.976
146.721     77.245    68.636
148.855     77.240    67.308
151.020     77.236    65.980
153.217     77.229    64.650
155.445     77.218    63.322
157.706     77.201    62.010
160.000     77.177    60.737
162.327     77.148    59.532
164.688     77.121    58.398
167.084     77.099    57.318
169.514     77.084    56.272
171.980     77.076    55.233
174.481     77.070    54.182
177.019     77.065    53.126
179.594     77.058    52.075
182.206     77.050    51.039
184.856     77.043    50.020
187.545     77.037    49.005
190.273     77.029    47.993
193.041     77.020    46.997
195.849     77.008    46.024
198.697     76.995    45.081
201.587     76.983    44.162
204.520     76.969    43.261
207.494     76.953    42.401
210.512     76.939    41.606
213.574     76.931    40.887
216.681     76.937    40.219
219.833     76.962    39.540
223.030     77.001    38.756
226.274     77.039    37.802
229.565     77.061    36.731
232.905     77.062    35.651
236.292     77.050    34.619
239.729     77.031    33.681
243.216     77.012    32.840
246.754     76.999    32.049
250.343     76.989    31.276
253.984     76.978    30.548
257.678     76.976    29.906
261.426     76.993    29.262
265.229     77.021    28.516
269.087     77.047    27.639
273.001     77.059    26.639
276.972     77.045    25.632
281.000     77.016    24.768
285.088     76.995    24.056
289.234     76.992    23.403
293.441     77.007    22.669
297.709     77.021    21.794
302.040     77.017    20.845
306.433     76.993    19.954
310.890     76.962    19.218
315.412     76.942    18.633
320.000     76.948    18.084
324.655     76.975    17.423
329.377     77.004    16.576
334.168     77.019    15.572
339.028     77.007    14.513
343.959     76.965    13.564
348.962     76.919    12.817
354.038     76.887    12.175
359.188     76.864    11.559
364.412     76.854    10.956
369.713     76.858    10.244
375.090     76.850     9.409
380.546     76.827     8.589
386.081     76.799     7.809
391.697     76.766     7.042
397.394     76.719     6.278
403.175     76.650     5.602
409.039     76.574     5.142
414.989     76.513     4.890
421.025     76.483     4.791
427.149     76.498     4.727
433.362     76.550     4.491
439.665     76.612     3.949
446.060     76.652     3.123
452.548     76.653     2.179
459.131     76.612     1.313
465.809     76.551     0.698
472.584     76.502     0.381
479.458     76.495     0.199
486.432     76.527    -0.055
493.507     76.576    -0.481
500.686     76.628    -1.081
507.968     76.666    -1.849
515.357     76.671    -2.672
522.853     76.653    -3.355
530.458     76.637    -3.858
538.174     76.636    -4.229
546.002     76.665    -4.575
553.943     76.716    -5.034
562.001     76.776    -5.587
570.175     76.848    -6.283
578.469     76.905    -7.192
586.883     76.935    -8.121
595.419     76.960    -8.983
604.080     76.977    -9.920
612.866     76.982   -10.898
621.780     76.975   -11.813
630.824     76.957   -12.662
640.000     76.939   -13.406
649.309     76.934   -14.089
658.753     76.931   -14.883
668.335     76.911   -15.728
678.056     76.888   -16.488
687.919     76.868   -17.120
697.925     76.880   -17.576
708.077     76.961   -18.172
718.376     77.041   -19.418
728.825     77.011   -20.888
739.426     76.938   -21.883
750.181     76.899   -22.590
761.093     76.887   -23.344
772.163     76.881   -24.088
783.394     76.880   -24.807
794.789     76.875   -25.606
806.349     76.863   -26.387
818.078     76.857   -27.188
829.977     76.847   -28.072
842.050     76.842   -28.886
854.298     76.855   -29.676
866.724     76.871   -30.560
879.330     76.888   -31.495
892.120     76.914   -32.504
905.097     76.938   -33.652
918.262     76.941   -34.882
931.618     76.925   -36.122
945.169     76.900   -37.305
958.917     76.871   -38.370
972.864     76.856   -39.474
987.015     76.848   -40.789
1001.37     76.821   -42.222
1015.94     76.771   -43.728
1030.71     76.686   -45.196
1045.71     76.574   -46.352
1060.92     76.466   -47.282
1076.35     76.361   -48.182
1092.00     76.239   -48.967
1107.89     76.110   -49.506
1124.00     76.012   -49.770
1140.35     75.975   -49.799
1156.94     76.008   -49.727
1173.77     76.121   -49.978
1190.84     76.262   -50.929
1208.16     76.354   -52.334
1225.73     76.405   -53.857
1243.56     76.431   -55.372
1261.65     76.446   -56.713
1280.00     76.480   -58.025
1298.62     76.515   -59.503
1317.51     76.551   -61.117
1336.67     76.580   -62.990
1356.11     76.550   -64.978
1375.84     76.483   -66.756
1395.85     76.408   -68.374
1416.15     76.317   -69.869
1436.75     76.226   -71.242
1457.65     76.139   -72.533
1478.85     76.055   -73.692
1500.36     75.989   -74.732
1522.19     75.956   -75.640
1544.33     75.977   -76.590
1566.79     76.031   -77.914
1589.58     76.069   -79.458
1612.70     76.085   -80.896
1636.16     76.129   -82.273
1659.95     76.241   -83.812
1684.10     76.377   -85.778
1708.60     76.488   -88.272
1733.45     76.551   -91.041
1758.66     76.545   -93.907
1784.24     76.461   -96.737
1810.19     76.328   -99.175
1836.52     76.187  -101.108
1863.24     76.062  -102.664
1890.34     75.990  -103.953
1917.83     76.008  -105.256
1945.73     76.100  -106.886
1974.03     76.225  -109.044
2002.74     76.349  -111.804
2031.87     76.416  -115.041
2061.43     76.396  -118.575
2091.41     76.296  -122.176
2121.83     76.128  -125.520
2152.69     75.919  -128.352
2184.01     75.693  -130.648
2215.77     75.459  -132.454
2248.00     75.259  -133.844
2280.70     75.143  -135.090
2313.87     75.109  -136.481
2347.53     75.141  -138.129
2381.68     75.213  -140.017
2416.32     75.283  -142.170
2451.46     75.319  -144.471
2487.12     75.315  -146.572
2523.30     75.302  -148.516
2560.00     75.293  -150.529
2597.24     75.284  -152.604
2635.01     75.274  -154.831
2673.34     75.253  -157.229
2712.23     75.211  -159.599
2751.68     75.150  -161.765
2791.70     75.092  -163.681
2832.31     75.052  -165.402
2873.50     75.039  -166.977
2915.30     75.067  -168.483
2957.70     75.132  -170.068
3000.72     75.209  -171.826
3044.37     75.277  -173.784
3088.65     75.303  -175.907
3133.58     75.292  -177.759
3179.16     75.339  -179.682
3225.40     75.328   178.190
3272.31     75.280   176.538
3319.91     75.255   175.432
3368.20     75.280   174.629
3417.19     75.362   173.895
3466.89     75.503   172.930
3517.32     75.671   171.525
3568.48     75.828   169.718
3620.39     75.947   167.626
3673.05     76.009   165.506
3726.47     76.026   163.649
3780.67     76.030   162.162
3835.67     76.068   160.908
3891.46     76.157   159.600
3948.06     76.273   157.997
4005.49     76.380   156.010
4063.75     76.440   153.805
4122.86     76.434   151.662
4182.82     76.382   149.772
4243.66     76.308   148.226
4305.39     76.228   146.993
4368.01     76.154   145.989
4431.55     76.092   145.221
4496.01     76.058   144.721
4561.40     76.073   144.376
4627.75     76.130   143.999
4695.06     76.213   143.510
4763.35     76.312   142.912
4832.64     76.426   142.215
4902.93     76.571   141.191
4974.24     76.649   139.566
5046.60     76.627   138.440
5120.00     76.650   137.662
5194.47     76.702   136.661
5270.03     76.744   135.392
5346.68     76.760   134.000
5424.45     76.750   132.627
5503.35     76.718   131.317
5583.40     76.656   130.045
5664.61     76.548   128.862
5747.01     76.394   127.921
5830.60     76.215   127.340
5915.41     76.043   127.108
6001.45     75.901   127.103
6088.74     75.790   127.147
6177.30     75.687   127.147
6267.15     75.562   127.184
6358.31     75.416   127.414
6450.80     75.270   127.896
6544.62     75.143   128.540
6639.82     75.031   129.284
6736.40     74.944   130.194
6834.38     74.899   131.223
6933.79     74.887   132.261
7034.64     74.899   133.344
7136.96     74.947   134.313
7240.77     74.995   134.969
7346.09     75.017   135.504
7452.94     75.040   135.979
7561.35     75.055   136.215
7671.33     75.042   136.413
7782.91     75.029   136.755
7896.12     75.027   137.026
8010.97     75.002   137.208
8127.49     74.956   137.506
8245.71     74.919   137.782
8365.65     74.855   137.852
8487.33     74.723   137.976
8610.78     74.564   138.398
8736.03     74.404   138.972
8863.09     74.220   139.620
8992.01     74.023   140.442
9122.80     73.824   141.363
9255.50     73.598   142.381
9390.12     73.339   143.702
9526.70     73.058   145.391
9665.27     72.768   147.622
9805.86     72.536   150.456
9948.49     72.404   153.563
10093.2     72.376   156.835
10240.0     72.488   159.970
10388.9     72.692   162.439
10540.1     72.918   164.178
10693.4     73.125   165.167
10848.9     73.258   165.572
11006.7     73.302   165.793
11166.8     73.261   166.108
11329.2     73.162   166.781
11494.0     73.046   167.763
11661.2     72.917   168.936
11830.8     72.789   170.330
12002.9     72.665   171.798
12177.5     72.518   173.402
12354.6     72.363   175.302
12534.3     72.212   177.373
12716.6     72.064   179.589
12901.6     71.943  -178.133
13089.2     71.842  -176.020
13279.6     71.739  -174.001
13472.8     71.640  -172.041
13668.8     71.528  -170.147
13867.6     71.404  -168.178
14069.3     71.279  -166.159
14273.9     71.149  -164.084
14481.5     71.018  -161.958
14692.2     70.871  -159.828
14905.9     70.707  -157.658
15122.7     70.533  -155.489
15342.7     70.348  -153.295
15565.8     70.167  -151.065
15792.2     69.996  -148.840
16021.9     69.828  -146.553
16255.0     69.641  -144.214
16491.4     69.429  -141.783
16731.3     69.191  -139.120
16974.7     68.928  -136.263
17221.6     68.648  -133.277
17472.1     68.336  -130.155
17726.2     67.972  -126.832
17984.0     67.543  -123.200
18245.6     67.054  -119.136
18511.0     66.529  -114.472
18780.2     66.008  -109.119
19053.4     65.543  -103.164
19330.5     65.181   -96.775
19611.7     64.952   -90.148
19897.0     64.856   -83.618
20186.4     64.851   -77.494
20480.0     64.873   -71.806
20777.9     64.883   -66.408
21080.1     64.852   -61.010
21386.7     64.766   -55.366
21697.8     64.684   -49.224
22013.4     64.660   -42.417
22333.6     64.713   -35.316
22658.4     64.878   -28.256
22988.0     65.125   -21.452
23322.4     65.411   -15.293
23661.6     65.721    -9.819
24005.8     66.020    -4.861
24355.0     66.290    -0.318
24709.2     66.527     4.044
25068.6     66.713     8.400
25433.2     66.852    12.724
25803.2     66.955    16.913
26178.5     67.020    20.838
26559.3     67.018    24.426
26945.6     66.917    27.825
27337.5     66.702    31.451
27735.2     66.373    35.825
28138.6     65.970    41.326
28547.9     65.565    48.013
28963.1     65.225    55.615
29384.4     64.984    63.636
29811.8     64.837    71.609
30245.4     64.759    79.324
30685.3     64.735    86.827
31131.7     64.762    94.280
31584.5     64.836   101.838
32043.9     64.955   109.536
32510.0     65.114   117.285
32982.8     65.297   124.964
33462.6     65.485   132.569
33949.3     65.683   140.209
34443.1     65.925   147.908
34944.1     66.241   155.517
35452.4     66.641   162.773
35968.0     67.107   169.367
36491.2     67.587   175.001
37022.0     67.996   179.639
37560.5     68.277  -176.347
38106.8     68.429  -172.373
38661.1     68.479  -168.146
39223.4     68.463  -163.326
