Freq[Hz]     dBSPL  Phase[Deg]
Freq[Hz]     dBSPL  Phase[Deg]
5.00000    -11.972   -12.843
5.07273    -11.615   -12.933
5.14651    -11.227   -13.030
5.22137    -10.793   -13.138
5.29732    -10.341   -13.252
5.37437     -9.867   -13.371
5.45254     -9.394   -13.492
5.53185     -8.920   -13.614
5.61231     -8.446   -13.739
5.69394     -7.973   -13.865
5.77676     -7.499   -13.993
5.86079     -7.026   -14.123
5.94604     -6.552   -14.255
6.03252     -6.078   -14.389
6.12027     -5.605   -14.525
6.20929     -5.131   -14.663
6.29961     -4.657   -14.802
6.39124     -4.183   -14.944
6.48420     -3.710   -15.088
6.57851     -3.236   -15.234
6.67420     -2.762   -15.382
6.77128     -2.288   -15.532
6.86977     -1.815   -15.685
6.96969     -1.341   -15.839
7.07107     -0.867   -15.996
7.17392     -0.393   -16.155
7.27827      0.081   -16.317
7.38413      0.555   -16.481
7.49154      1.029   -16.647
7.60050      1.503   -16.816
7.71105      1.977   -16.987
7.82321      2.451   -17.160
7.93701      2.925   -17.336
8.05245      3.399   -17.515
8.16958      3.873   -17.697
8.28841      4.347   -17.881
8.40896      4.821   -18.067
8.53128      5.296   -18.257
8.65537      5.770   -18.449
8.78126      6.244   -18.644
8.90899      6.718   -18.842
9.03857      7.193   -19.042
9.17004      7.667   -19.246
9.30342      8.142   -19.453
9.43874      8.616   -19.662
9.57603      9.091   -19.875
9.71532      9.565   -20.091
9.85663     10.040   -20.310
10.0000     10.514   -20.532
10.1455     10.989   -20.758
10.2930     11.464   -20.987
10.4427     11.939   -21.219
10.5946     12.413   -21.455
10.7487     12.888   -21.694
10.9051     13.363   -21.936
11.0637     13.838   -22.182
11.2246     14.313   -22.432
11.3879     14.789   -22.686
11.5535     15.264   -22.943
11.7216     15.739   -23.204
11.8921     16.214   -23.469
12.0650     16.690   -23.737
12.2405     17.165   -24.010
12.4186     17.641   -24.287
12.5992     18.116   -24.568
12.7825     18.592   -24.853
12.9684     19.068   -25.142
13.1570     19.544   -25.435
13.3484     20.020   -25.733
13.5426     20.496   -26.035
13.7395     20.972   -26.342
13.9394     21.448   -26.653
14.1421     21.925   -26.969
14.3478     22.401   -27.290
14.5565     22.878   -27.615
14.7683     23.354   -27.946
14.9831     23.831   -28.281
15.2010     24.308   -28.621
15.4221     24.785   -28.966
15.6464     25.262   -29.317
15.8740     25.740   -29.673
16.1049     26.217   -30.034
16.3392     26.695   -30.400
16.5768     27.172   -30.772
16.8179     27.650   -31.150
17.0626     28.128   -31.533
17.3107     28.607   -31.923
17.5625     29.085   -32.318
17.8180     29.564   -32.719
18.0771     30.043   -33.126
18.3401     30.522   -33.540
18.6068     31.001   -33.960
18.8775     31.480   -34.386
19.1521     31.960   -34.819
19.4306     32.440   -35.259
19.7133     32.919   -35.715
20.0000     33.397   -36.201
20.2909     33.869   -36.715
20.5860     34.333   -37.227
20.8855     34.785   -37.634
21.1893     35.225   -37.903
21.4975     35.657   -38.121
21.8102     36.092   -38.363
22.1274     36.536   -38.650
22.4492     36.998   -38.949
22.7758     37.480   -39.209
23.1071     37.981   -39.505
23.4432     38.497   -39.878
23.7841     39.019   -40.445
24.1301     39.540   -41.361
24.4811     40.052   -42.485
24.8372     40.548   -43.593
25.1984     41.030   -44.578
25.5649     41.500   -45.363
25.9368     41.967   -46.041
26.3141     42.438   -46.739
26.6968     42.914   -47.530
27.0851     43.396   -48.458
27.4791     43.880   -49.494
27.8788     44.363   -50.555
28.2843     44.843   -51.549
28.6957     45.320   -52.481
29.1131     45.796   -53.412
29.5365     46.272   -54.379
29.9661     46.749   -55.434
30.4020     47.224   -56.509
30.8442     47.699   -57.567
31.2929     48.174   -58.643
31.7480     48.650   -59.773
32.2098     49.123   -61.038
32.6783     49.592   -62.441
33.1536     50.049   -63.698
33.6359     50.498   -64.606
34.1251     50.952   -65.082
34.6215     51.435   -65.486
35.1250     51.954   -66.153
35.6359     52.497   -67.257
36.1543     53.041   -68.617
36.6802     53.576   -70.061
37.2137     54.100   -71.444
37.7550     54.615   -72.749
38.3041     55.132   -74.111
38.8613     55.659   -75.754
39.4265     56.184   -77.509
40.0000     56.702   -79.177
40.5818     57.213   -80.615
41.1721     57.726   -81.970
41.7710     58.247   -83.429
42.3785     58.776   -85.154
42.9949     59.307   -87.172
43.6203     59.832   -89.396
44.2548     60.341   -91.685
44.8985     60.833   -93.882
45.5515     61.309   -95.887
46.2141     61.776   -97.728
46.8863     62.246   -99.502
47.5683     62.722  -101.298
48.2602     63.209  -103.192
48.9621     63.704  -105.202
49.6743     64.205  -107.307
50.3968     64.709  -109.492
51.1299     65.214  -111.738
51.8736     65.717  -114.033
52.6281     66.217  -116.390
53.3936     66.713  -118.830
54.1702     67.203  -121.363
54.9581     67.687  -123.974
55.7575     68.164  -126.663
56.5685     68.634  -129.435
57.3914     69.095  -132.262
58.2261     69.548  -135.123
59.0730     69.993  -138.039
59.9323     70.430  -141.034
60.8040     70.856  -144.111
61.6884     71.271  -147.258
62.5857     71.676  -150.472
63.4960     72.069  -153.754
64.4196     72.447  -157.094
65.3566     72.806  -160.490
66.3073     73.148  -163.937
67.2717     73.473  -167.417
68.2502     73.786  -170.910
69.2429     74.090  -174.415
70.2501     74.384  -177.946
71.2719     74.661   178.478
72.3086     74.913   174.874
73.3603     75.141   171.285
74.4274     75.346   167.733
75.5099     75.533   164.231
76.6083     75.705   160.772
77.7226     75.863   157.340
78.8531     76.008   153.938
80.0000     76.137   150.569
81.1636     76.251   147.256
82.3442     76.350   144.033
83.5419     76.436   140.891
84.7570     76.512   137.828
85.9899     76.578   134.848
87.2406     76.637   131.946
88.5096     76.689   129.115
89.7970     76.735   126.356
91.1031     76.778   123.660
92.4282     76.820   121.018
93.7726     76.858   118.431
95.1366     76.892   115.895
96.5204     76.923   113.401
97.9243     76.949   110.945
99.3486     76.969   108.537
100.794     76.985   106.178
102.260     76.996   103.873
103.747     77.004   101.634
105.256     77.011    99.469
106.787     77.021    97.353
108.340     77.034    95.251
109.916     77.045    93.164
111.515     77.052    91.099
113.137     77.053    89.065
114.783     77.051    87.080
116.452     77.050    85.138
118.146     77.051    83.207
119.865     77.051    81.273
121.608     77.043    79.342
123.377     77.026    77.444
125.171     77.002    75.620
126.992     76.976    73.878
128.839     76.952    72.200
130.713     76.935    70.558
132.615     76.920    68.914
134.543     76.904    67.260
136.500     76.882    65.618
138.486     76.853    64.027
140.500     76.824    62.511
142.544     76.797    61.068
144.617     76.779    59.675
146.721     76.768    58.298
148.855     76.762    56.908
151.020     76.756    55.496
153.217     76.748    54.073
155.445     76.737    52.662
157.706     76.725    51.265
160.000     76.711    49.877
162.327     76.694    48.510
164.688     76.677    47.174
167.084     76.661    45.869
169.514     76.649    44.595
171.980     76.641    43.318
174.481     76.632    42.018
177.019     76.620    40.706
179.594     76.604    39.390
182.206     76.581    38.088
184.856     76.556    36.828
187.545     76.533    35.600
190.273     76.510    34.392
193.041     76.488    33.211
195.849     76.469    32.048
198.697     76.455    30.881
201.587     76.443    29.672
204.520     76.426    28.401
207.494     76.393    27.115
210.512     76.345    25.897
213.574     76.288    24.817
216.681     76.238    23.877
219.833     76.207    22.993
223.030     76.193    22.075
226.274     76.188    21.061
229.565     76.182    19.947
232.905     76.164    18.806
236.292     76.139    17.701
239.729     76.112    16.642
243.216     76.085    15.613
246.754     76.057    14.595
250.343     76.028    13.594
253.984     75.998    12.626
257.678     75.972    11.695
261.426     75.958    10.783
265.229     75.956     9.807
269.087     75.954     8.707
273.001     75.941     7.531
276.972     75.912     6.336
281.000     75.867     5.215
285.088     75.819     4.250
289.234     75.786     3.374
293.441     75.772     2.485
297.709     75.771     1.513
302.040     75.771     0.432
306.433     75.767    -0.722
310.890     75.756    -1.968
315.412     75.724    -3.294
320.000     75.671    -4.616
324.655     75.598    -5.917
329.377     75.507    -7.126
334.168     75.417    -8.176
339.028     75.339    -9.157
343.959     75.271   -10.165
348.962     75.201   -11.232
354.038     75.114   -12.337
359.188     75.006   -13.368
364.412     74.889   -14.258
369.713     74.777   -15.044
375.090     74.675   -15.758
380.546     74.585   -16.443
386.081     74.502   -17.166
391.697     74.410   -17.909
397.394     74.305   -18.629
403.175     74.187   -19.281
409.039     74.054   -19.740
414.989     73.933   -19.923
421.025     73.851   -19.913
427.149     73.816   -19.853
433.362     73.830   -19.913
439.665     73.868   -20.303
446.060     73.890   -20.987
452.548     73.890   -21.718
459.131     73.887   -22.444
465.809     73.891   -23.254
472.584     73.898   -24.194
479.458     73.897   -25.353
486.432     73.852   -26.737
493.507     73.734   -28.063
500.686     73.565   -28.976
507.968     73.397   -29.398
515.357     73.258   -29.425
522.853     73.183   -29.183
530.458     73.192   -28.970
538.174     73.260   -29.082
546.002     73.361   -29.631
553.943     73.460   -30.707
562.001     73.497   -32.252
570.175     73.431   -33.980
578.469     73.256   -35.398
586.883     73.032   -36.075
595.419     72.839   -36.129
604.080     72.730   -35.902
612.866     72.719   -35.790
621.780     72.733   -36.183
630.824     72.710   -36.876
640.000     72.652   -37.439
649.309     72.582   -37.729
658.753     72.563   -37.755
668.335     72.614   -37.840
678.056     72.684   -38.338
687.919     72.735   -39.128
697.925     72.763   -40.031
708.077     72.767   -41.149
718.376     72.712   -42.536
728.825     72.550   -43.629
739.426     72.371   -43.903
750.181     72.281   -43.647
761.093     72.279   -43.362
772.163     72.315   -43.241
783.394     72.381   -43.186
794.789     72.485   -43.274
806.349     72.620   -43.662
818.078     72.780   -44.381
829.977     72.944   -45.586
842.050     73.050   -47.193
854.298     73.085   -48.683
866.724     73.085   -50.001
879.330     73.051   -51.204
892.120     73.010   -51.984
905.097     73.022   -52.520
918.262     73.084   -53.148
931.618     73.194   -53.901
945.169     73.339   -54.931
958.917     73.476   -56.345
972.864     73.607   -58.085
987.015     73.733   -60.090
1001.37     73.828   -62.194
1015.94     73.925   -64.340
1030.71     74.017   -66.770
1045.71     74.043   -69.427
1060.92     74.011   -72.096
1076.35     73.930   -74.825
1092.00     73.780   -77.436
1107.89     73.589   -79.773
1124.00     73.372   -81.876
1140.35     73.120   -83.612
1156.94     72.853   -84.902
1173.77     72.610   -85.591
1190.84     72.463   -85.730
1208.16     72.438   -85.721
1225.73     72.525   -85.861
1243.56     72.705   -86.553
1261.65     72.905   -88.094
1280.00     73.054   -90.392
1298.62     73.100   -93.175
1317.51     73.038   -95.740
1336.67     72.950   -97.849
1356.11     72.860   -99.925
1375.84     72.751  -101.863
1395.85     72.659  -103.621
1416.15     72.556  -105.446
1436.75     72.418  -107.062
1457.65     72.306  -108.349
1478.85     72.247  -109.538
1500.36     72.236  -110.842
1522.19     72.252  -112.430
1544.33     72.242  -114.198
1566.79     72.208  -116.015
1589.58     72.156  -117.773
1612.70     72.116  -119.374
1636.16     72.149  -121.135
1659.95     72.213  -123.518
1684.10     72.227  -126.587
1708.60     72.116  -129.899
1733.45     71.863  -132.670
1758.66     71.563  -134.345
1784.24     71.305  -135.026
1810.19     71.164  -135.135
1836.52     71.193  -135.152
1863.24     71.338  -135.651
1890.34     71.569  -136.944
1917.83     71.826  -139.028
1945.73     72.025  -141.737
1974.03     72.165  -144.880
2002.74     72.224  -148.303
2031.87     72.184  -151.721
2061.43     72.091  -154.867
2091.41     71.967  -157.669
2121.83     71.842  -160.095
2152.69     71.771  -162.188
2184.01     71.766  -164.138
2215.77     71.800  -166.276
2248.00     71.845  -168.844
2280.70     71.869  -171.808
2313.87     71.832  -175.068
2347.53     71.727  -178.366
2381.68     71.576   178.761
2416.32     71.397   176.541
2451.46     71.216   174.961
2487.12     71.072   173.863
2523.30     71.007   173.001
2560.00     71.053   172.093
2597.24     71.182   170.749
2635.01     71.329   168.868
2673.34     71.443   166.556
2712.23     71.455   163.814
2751.68     71.338   160.981
2791.70     71.152   158.482
2832.31     70.972   156.341
2873.50     70.832   154.535
2915.30     70.774   152.990
2957.70     70.816   151.446
3000.72     70.908   149.634
3044.37     70.982   147.387
3088.65     70.986   144.874
3133.58     70.922   142.653
3179.16     70.882   140.510
3225.40     70.778   138.247
3272.31     70.633   136.561
3319.91     70.513   135.377
3368.20     70.451   134.387
3417.19     70.448   133.332
3466.89     70.466   131.949
3517.32     70.462   130.312
3568.48     70.437   128.755
3620.39     70.411   127.416
3673.05     70.399   126.292
3726.47     70.430   125.142
3780.67     70.487   123.623
3835.67     70.512   121.788
3891.46     70.491   119.878
3948.06     70.440   118.224
4005.49     70.404   117.062
4063.75     70.439   115.989
4122.86     70.521   114.455
4182.82     70.583   112.255
4243.66     70.566   109.482
4305.39     70.432   106.683
4368.01     70.203   104.463
4431.55     69.947   102.881
4496.01     69.702   101.676
4561.40     69.463   100.675
4627.75     69.222    99.753
4695.06     68.962    98.933
4763.35     68.700    98.415
4832.64     68.494    98.145
4902.93     68.371    97.733
4974.24     68.232    96.618
5046.60     67.988    95.815
5120.00     67.747    95.568
5194.47     67.530    95.410
5270.03     67.324    95.214
5346.68     67.099    95.057
5424.45     66.858    95.005
5503.35     66.610    95.290
5583.40     66.368    95.991
5664.61     66.131    97.029
5747.01     65.901    98.515
5830.60     65.710   100.462
5915.41     65.599   102.612
6001.45     65.584   104.623
6088.74     65.633   106.198
6177.30     65.689   107.250
6267.15     65.699   107.987
6358.31     65.641   108.626
6450.80     65.535   109.333
6544.62     65.394   110.213
6639.82     65.231   111.213
6736.40     65.063   112.530
6834.38     64.914   114.496
6933.79     64.863   116.923
7034.64     64.945   119.276
7136.96     65.122   121.257
7240.77     65.375   122.682
7346.09     65.668   123.303
7452.94     65.935   123.317
7561.35     66.136   123.118
7671.33     66.272   122.859
7782.91     66.351   122.816
7896.12     66.379   123.149
8010.97     66.375   123.751
8127.49     66.368   124.636
8245.71     66.375   125.664
8365.65     66.403   126.538
8487.33     66.450   127.224
8610.78     66.496   127.784
8736.03     66.545   128.287
8863.09     66.635   128.716
8992.01     66.743   128.853
9122.80     66.825   128.664
9255.50     66.879   128.275
9390.12     66.901   127.625
9526.70     66.858   126.570
9665.27     66.720   125.212
9805.86     66.482   123.810
9948.49     66.136   122.526
10093.2     65.654   121.788
10240.0     65.075   122.217
10388.9     64.487   124.038
10540.1     63.990   127.090
10693.4     63.685   130.934
10848.9     63.622   134.870
11006.7     63.765   138.083
11166.8     64.008   140.048
11329.2     64.229   140.705
11494.0     64.329   140.377
11661.2     64.271   139.708
11830.8     64.071   139.294
12002.9     63.777   139.458
12177.5     63.455   140.213
12354.6     63.138   141.346
12534.3     62.837   142.642
12716.6     62.527   143.876
12901.6     62.170   145.073
13089.2     61.765   146.337
13279.6     61.292   147.792
13472.8     60.768   149.874
13668.8     60.261   152.780
13867.6     59.809   156.456
14069.3     59.457   160.634
14273.9     59.221   164.700
14481.5     59.046   168.225
14692.2     58.842   171.007
14905.9     58.519   173.318
15122.7     58.025   175.948
15342.7     57.382   179.492
15565.8     56.689  -175.665
15792.2     56.069  -169.530
16021.9     55.659  -162.666
16255.0     55.524  -155.769
16491.4     55.608  -149.441
16731.3     55.806  -143.994
16974.7     55.986  -139.393
17221.6     56.085  -135.194
17472.1     56.132  -130.892
17726.2     56.161  -126.479
17984.0     56.202  -122.187
18245.6     56.249  -118.175
18511.0     56.236  -114.479
18780.2     56.116  -110.806
19053.4     55.904  -106.714
19330.5     55.667  -101.951
19611.7     55.510   -96.560
19897.0     55.534   -90.945
20186.4     55.765   -85.680
20480.0     56.146   -81.282
20777.9     56.570   -78.144
21080.1     56.922   -76.319
21386.7     57.136   -75.588
21697.8     57.180   -75.673
22013.4     57.023   -76.149
22333.6     56.639   -76.617
22658.4     56.011   -76.742
22988.0     55.112   -75.912
23322.4     53.925   -73.221
23661.6     52.513   -67.734
24005.8     51.043   -58.950
24355.0     49.791   -47.193
24709.2     49.077   -33.789
25068.6     49.006   -20.602
25433.2     49.396    -9.168
25803.2     49.968    -0.294
26178.5     50.445     6.065
26559.3     50.663    10.787
26945.6     50.619    15.128
27337.5     50.382    20.116
27735.2     50.047    26.438
28138.6     49.759    34.380
28547.9     49.679    43.489
28963.1     49.867    52.649
29384.4     50.217    60.758
29811.8     50.585    67.249
30245.4     50.884    72.007
30685.3     51.050    75.374
31131.7     51.052    77.832
31584.5     50.887    79.568
32043.9     50.531    80.930
32510.0     49.947    82.686
32982.8     49.125    86.375
33462.6     48.148    93.783
33949.3     47.235   105.375
34443.1     46.712   120.285
34944.1     46.849   136.607
35452.4     47.656   151.598
35968.0     48.868   163.075
36491.2     50.139   170.122
37022.0     51.221   172.797
37560.5     51.989   172.392
38106.8     52.404   170.811
38661.1     52.538   169.972
39223.4     52.521   171.038
