Freq[Hz]     dBSPL  Phase[Deg]
Freq[Hz]     dBSPL  Phase[Deg]
5.00000    -12.375   -12.016
5.07273    -12.018   -12.110
5.14651    -11.629   -12.213
5.22137    -11.193   -12.328
5.29732    -10.738   -12.449
5.37437    -10.263   -12.577
5.45254     -9.787   -12.707
5.53185     -9.311   -12.839
5.61231     -8.835   -12.973
5.69394     -8.360   -13.108
5.77676     -7.884   -13.246
5.86079     -7.408   -13.386
5.94604     -6.932   -13.527
6.03252     -6.457   -13.671
6.12027     -5.981   -13.817
6.20929     -5.505   -13.965
6.29961     -5.029   -14.115
6.39124     -4.553   -14.268
6.48420     -4.077   -14.422
6.57851     -3.602   -14.579
6.67420     -3.126   -14.738
6.77128     -2.650   -14.899
6.86977     -2.174   -15.063
6.96969     -1.698   -15.229
7.07107     -1.222   -15.398
7.17392     -0.746   -15.569
7.27827     -0.270   -15.742
7.38413      0.206   -15.918
7.49154      0.682   -16.097
7.60050      1.159   -16.278
7.71105      1.635   -16.462
7.82321      2.111   -16.649
7.93701      2.587   -16.838
8.05245      3.063   -17.030
8.16958      3.540   -17.225
8.28841      4.016   -17.422
8.40896      4.492   -17.623
8.53128      4.969   -17.827
8.65537      5.445   -18.033
8.78126      5.921   -18.243
8.90899      6.398   -18.455
9.03857      6.874   -18.671
9.17004      7.351   -18.890
9.30342      7.827   -19.112
9.43874      8.304   -19.337
9.57603      8.781   -19.565
9.71532      9.257   -19.797
9.85663      9.734   -20.033
10.0000     10.211   -20.271
10.1455     10.688   -20.514
10.2930     11.165   -20.760
10.4427     11.642   -21.009
10.5946     12.118   -21.262
10.7487     12.596   -21.519
10.9051     13.073   -21.779
11.0637     13.550   -22.044
11.2246     14.027   -22.312
11.3879     14.504   -22.584
11.5535     14.982   -22.861
11.7216     15.459   -23.141
11.8921     15.936   -23.425
12.0650     16.414   -23.714
12.2405     16.892   -24.007
12.4186     17.369   -24.304
12.5992     17.847   -24.606
12.7825     18.325   -24.912
12.9684     18.803   -25.222
13.1570     19.281   -25.538
13.3484     19.759   -25.857
13.5426     20.237   -26.182
13.7395     20.715   -26.511
13.9394     21.194   -26.846
14.1421     21.672   -27.185
14.3478     22.151   -27.529
14.5565     22.630   -27.879
14.7683     23.109   -28.233
14.9831     23.587   -28.593
15.2010     24.067   -28.959
15.4221     24.546   -29.329
15.6464     25.025   -29.706
15.8740     25.505   -30.088
16.1049     25.984   -30.475
16.3392     26.464   -30.869
16.5768     26.944   -31.268
16.8179     27.424   -31.674
17.0626     27.904   -32.085
17.3107     28.384   -32.503
17.5625     28.865   -32.927
17.8180     29.346   -33.358
18.0771     29.827   -33.795
18.3401     30.308   -34.239
18.6068     30.789   -34.689
18.8775     31.271   -35.147
19.1521     31.753   -35.612
19.4306     32.234   -36.083
19.7133     32.716   -36.577
20.0000     33.198   -37.111
20.2909     33.675   -37.684
20.5860     34.143   -38.251
20.8855     34.596   -38.665
21.1893     35.032   -38.871
21.4975     35.459   -38.998
21.8102     35.891   -39.167
22.1274     36.339   -39.442
22.4492     36.811   -39.803
22.7758     37.309   -40.178
23.1071     37.823   -40.599
23.4432     38.345   -41.061
23.7841     38.867   -41.680
24.1301     39.382   -42.637
24.4811     39.887   -43.800
24.8372     40.377   -44.941
25.1984     40.856   -45.956
25.5649     41.325   -46.772
25.9368     41.793   -47.485
26.3141     42.263   -48.225
26.6968     42.737   -49.057
27.0851     43.215   -50.022
27.4791     43.695   -51.085
27.8788     44.174   -52.162
28.2843     44.651   -53.164
28.6957     45.127   -54.102
29.1131     45.604   -55.044
29.5365     46.082   -56.032
29.9661     46.561   -57.126
30.4020     47.039   -58.250
30.8442     47.514   -59.365
31.2929     47.987   -60.495
31.7480     48.458   -61.664
32.2098     48.926   -62.949
32.6783     49.391   -64.363
33.1536     49.846   -65.631
33.6359     50.296   -66.561
34.1251     50.750   -67.082
34.6215     51.233   -67.533
35.1250     51.749   -68.225
35.6359     52.288   -69.318
36.1543     52.834   -70.650
36.6802     53.376   -72.086
37.2137     53.908   -73.508
37.7550     54.432   -74.903
38.3041     54.952   -76.382
38.8613     55.475   -78.123
39.4265     55.994   -79.937
40.0000     56.506   -81.627
40.5818     57.014   -83.077
41.1721     57.526   -84.452
41.7710     58.046   -85.939
42.3785     58.574   -87.694
42.9949     59.104   -89.734
43.6203     59.628   -91.973
44.2548     60.141   -94.277
44.8985     60.637   -96.500
45.5515     61.117   -98.545
46.2141     61.588  -100.441
46.8863     62.060  -102.279
47.5683     62.537  -104.138
48.2602     63.023  -106.090
48.9621     63.517  -108.156
49.6743     64.017  -110.308
50.3968     64.520  -112.536
51.1299     65.025  -114.823
51.8736     65.529  -117.158
52.6281     66.031  -119.559
53.3936     66.528  -122.049
54.1702     67.021  -124.640
54.9581     67.506  -127.317
55.7575     67.983  -130.070
56.5685     68.451  -132.904
57.3914     68.911  -135.789
58.2261     69.363  -138.705
59.0730     69.807  -141.669
59.9323     70.244  -144.711
60.8040     70.671  -147.835
61.6884     71.089  -151.030
62.5857     71.496  -154.297
63.4960     71.893  -157.642
64.4196     72.272  -161.057
65.3566     72.632  -164.534
66.3073     72.972  -168.064
67.2717     73.294  -171.623
68.2502     73.603  -175.183
69.2429     73.903  -178.739
70.2501     74.194   177.693
71.2719     74.470   174.088
72.3086     74.724   170.453
73.3603     74.955   166.826
74.4274     75.164   163.222
75.5099     75.354   159.656
76.6083     75.528   156.124
77.7226     75.688   152.617
78.8531     75.832   149.148
80.0000     75.961   145.720
81.1636     76.073   142.361
82.3442     76.175   139.105
83.5419     76.267   135.930
84.7570     76.351   132.815
85.9899     76.427   129.760
87.2406     76.496   126.759
88.5096     76.556   123.809
89.7970     76.608   120.921
91.1031     76.654   118.096
92.4282     76.697   115.329
93.7726     76.736   112.619
95.1366     76.768   109.964
96.5204     76.797   107.358
97.9243     76.822   104.798
99.3486     76.841   102.292
100.794     76.857    99.836
102.260     76.870    97.428
103.747     76.880    95.076
105.256     76.887    92.783
106.787     76.895    90.538
108.340     76.904    88.318
109.916     76.911    86.123
111.515     76.913    83.962
113.137     76.910    81.845
114.783     76.908    79.789
116.452     76.909    77.775
118.146     76.915    75.760
119.865     76.922    73.725
121.608     76.923    71.667
123.377     76.911    69.616
125.171     76.888    67.630
126.992     76.859    65.729
128.839     76.831    63.907
130.713     76.807    62.143
132.615     76.788    60.402
134.543     76.770    58.668
136.500     76.751    56.954
138.486     76.730    55.276
140.500     76.710    53.640
142.544     76.692    52.048
144.617     76.679    50.493
146.721     76.673    48.948
148.855     76.671    47.389
151.020     76.669    45.801
153.217     76.664    44.185
155.445     76.653    42.564
157.706     76.635    40.962
160.000     76.610    39.400
162.327     76.583    37.909
164.688     76.559    36.490
167.084     76.545    35.109
169.514     76.541    33.732
171.980     76.543    32.320
174.481     76.546    30.845
177.019     76.543    29.327
179.594     76.529    27.803
182.206     76.505    26.319
184.856     76.480    24.908
187.545     76.460    23.558
190.273     76.447    22.229
193.041     76.440    20.902
195.849     76.439    19.561
198.697     76.443    18.183
201.587     76.447    16.739
204.520     76.446    15.221
207.494     76.432    13.657
210.512     76.403    12.098
213.574     76.359    10.603
216.681     76.305     9.204
219.833     76.248     7.899
223.030     76.196     6.695
226.274     76.155     5.567
229.565     76.128     4.467
232.905     76.116     3.391
236.292     76.123     2.306
239.729     76.147     1.110
243.216     76.171    -0.252
246.754     76.182    -1.744
250.343     76.170    -3.286
253.984     76.137    -4.784
257.678     76.090    -6.154
261.426     76.051    -7.380
265.229     76.035    -8.578
269.087     76.034    -9.893
273.001     76.030   -11.333
276.972     76.011   -12.828
281.000     75.975   -14.269
285.088     75.938   -15.553
289.234     75.919   -16.746
293.441     75.926   -17.989
297.709     75.945   -19.404
302.040     75.952   -21.001
306.433     75.936   -22.637
310.890     75.906   -24.228
315.412     75.874   -25.780
320.000     75.848   -27.334
324.655     75.824   -29.004
329.377     75.788   -30.786
334.168     75.735   -32.579
339.028     75.667   -34.365
343.959     75.588   -36.141
348.962     75.495   -37.911
354.038     75.379   -39.665
359.188     75.236   -41.286
364.412     75.086   -42.694
369.713     74.948   -43.920
375.090     74.833   -45.058
380.546     74.742   -46.238
386.081     74.659   -47.502
391.697     74.569   -48.843
397.394     74.469   -50.244
403.175     74.357   -51.657
409.039     74.223   -53.074
414.989     74.064   -54.411
421.025     73.882   -55.488
427.149     73.704   -56.187
433.362     73.570   -56.572
439.665     73.507   -56.883
446.060     73.504   -57.399
452.548     73.524   -58.239
459.131     73.538   -59.336
465.809     73.543   -60.620
472.584     73.530   -62.019
479.458     73.499   -63.379
486.432     73.474   -64.705
493.507     73.454   -66.146
500.686     73.429   -67.712
507.968     73.395   -69.423
515.357     73.322   -71.348
522.853     73.191   -73.244
530.458     73.023   -74.829
538.174     72.847   -76.105
546.002     72.707   -77.035
553.943     72.666   -77.882
562.001     72.718   -79.330
570.175     72.764   -81.629
578.469     72.719   -84.496
586.883     72.547   -87.428
595.419     72.273   -89.856
604.080     71.961   -91.411
612.866     71.702   -92.228
621.780     71.562   -92.920
630.824     71.496   -93.987
640.000     71.416   -95.597
649.309     71.278   -97.556
658.753     71.075   -99.376
668.335     70.838  -100.760
678.056     70.643  -101.685
687.919     70.559  -102.492
697.925     70.580  -103.743
708.077     70.653  -106.015
718.376     70.641  -109.610
728.825     70.393  -113.584
739.426     69.964  -116.896
750.181     69.441  -119.322
761.093     68.860  -120.686
772.163     68.281  -121.175
783.394     67.758  -120.898
794.789     67.362  -119.989
806.349     67.122  -119.049
818.078     67.007  -118.159
829.977     67.021  -117.371
842.050     67.097  -117.456
854.298     67.076  -118.324
866.724     66.958  -119.057
879.330     66.804  -119.615
892.120     66.592  -120.035
905.097     66.377  -119.676
918.262     66.308  -118.581
931.618     66.424  -117.568
945.169     66.655  -117.273
958.917     66.919  -118.055
972.864     67.146  -119.684
987.015     67.319  -121.690
1001.37     67.465  -124.061
1015.94     67.567  -126.625
1030.71     67.625  -129.202
1045.71     67.676  -132.211
1060.92     67.622  -135.835
1076.35     67.379  -139.305
1092.00     67.088  -141.666
1107.89     66.890  -143.137
1124.00     66.772  -144.380
1140.35     66.781  -145.713
1156.94     66.891  -148.009
1173.77     66.894  -151.383
1190.84     66.733  -154.500
1208.16     66.482  -156.908
1225.73     66.188  -158.539
1243.56     65.997  -158.998
1261.65     66.018  -159.268
1280.00     66.175  -160.321
1298.62     66.401  -162.301
1317.51     66.581  -165.690
1336.67     66.605  -169.882
1356.11     66.518  -174.033
1375.84     66.352  -178.227
1395.85     66.109   178.060
1416.15     65.858   174.964
1436.75     65.614   171.984
1457.65     65.364   168.923
1478.85     65.091   165.692
1500.36     64.777   162.701
1522.19     64.440   159.818
1544.33     64.078   156.785
1566.79     63.685   154.183
1589.58     63.301   151.663
1612.70     62.969   148.655
1636.16     62.637   144.963
1659.95     62.190   140.193
1684.10     61.558   134.929
1708.60     60.640   130.016
1733.45     59.356   126.288
1758.66     57.816   125.205
1784.24     56.130   127.920
1810.19     54.456   135.088
1836.52     53.160   147.302
1863.24     52.772   163.832
1890.34     53.659  -179.993
1917.83     55.482  -169.043
1945.73     57.604  -165.648
1974.03     59.493  -168.455
2002.74     60.930  -173.902
2031.87     61.882   179.527
2061.43     62.426   172.966
2091.41     62.699   167.678
2121.83     62.835   163.221
2152.69     62.958   159.267
2184.01     63.116   155.621
2215.77     63.301   151.743
2248.00     63.552   147.878
2280.70     63.868   143.875
2313.87     64.235   139.140
2347.53     64.627   133.492
2381.68     64.925   127.004
2416.32     65.084   120.200
2451.46     65.136   113.730
2487.12     65.110   108.066
2523.30     65.120   103.208
2560.00     65.238    98.322
2597.24     65.430    92.231
2635.01     65.576    84.377
2673.34     65.489    75.452
2712.23     65.088    66.711
2751.68     64.425    59.400
2791.70     63.542    54.598
2832.31     62.539    52.362
2873.50     61.578    51.834
2915.30     60.695    52.326
2957.70     59.957    53.154
3000.72     59.542    53.370
3044.37     59.405    52.349
3088.65     59.418    49.711
3133.58     59.459    45.369
3179.16     59.440    40.140
3225.40     59.294    34.414
3272.31     59.038    29.305
3319.91     58.838    25.780
3368.20     58.917    23.326
3417.19     59.295    20.629
3466.89     59.796    16.589
3517.32     60.288    10.929
3568.48     60.705     4.281
3620.39     60.999    -2.794
3673.05     61.219    -9.809
3726.47     61.451   -16.602
3780.67     61.706   -24.084
3835.67     61.911   -32.906
3891.46     61.937   -42.530
3948.06     61.765   -52.060
4005.49     61.487   -61.008
4063.75     61.190   -69.135
4122.86     60.950   -76.408
4182.82     60.830   -83.356
4243.66     60.837   -90.568
4305.39     60.914   -98.329
4368.01     60.998  -106.907
4431.55     61.069  -116.262
4496.01     61.134  -126.265
4561.40     61.189  -137.098
4627.75     61.195  -148.782
4695.06     61.151  -161.275
4763.35     61.084  -174.693
4832.64     60.981   171.143
4902.93     60.857   156.535
4974.24     60.613   141.647
5046.60     60.207   128.236
5120.00     59.828   116.578
5194.47     59.479   105.668
5270.03     59.153    94.900
5346.68     58.880    84.028
5424.45     58.635    72.434
5503.35     58.406    59.843
5583.40     58.165    46.356
5664.61     57.795    32.119
5747.01     57.219    17.898
5830.60     56.450     4.572
5915.41     55.521    -7.459
6001.45     54.485   -18.083
6088.74     53.447   -27.273
6177.30     52.454   -35.370
6267.15     51.403   -42.829
6358.31     50.283   -49.383
6450.80     49.291   -54.889
6544.62     48.598   -59.614
6639.82     48.409   -64.148
6736.40     48.841   -70.109
6834.38     49.637   -78.607
6933.79     50.536   -90.284
7034.64     51.492  -105.964
7136.96     52.340  -124.479
7240.77     52.896  -143.488
7346.09     53.206  -161.551
7452.94     53.272  -177.499
7561.35     53.063   168.775
7671.33     52.698   155.569
7782.91     52.268   140.764
7896.12     51.805   122.929
8010.97     51.343   102.323
8127.49     50.844    80.437
8245.71     50.278    58.530
8365.65     49.676    38.635
8487.33     49.072    22.009
8610.78     48.504     7.933
8736.03     48.099    -3.402
8863.09     47.873   -13.090
8992.01     47.789   -23.093
9122.80     47.741   -33.507
9255.50     47.374   -45.890
9390.12     46.692   -60.169
9526.70     45.951   -74.274
9665.27     45.290   -88.820
9805.86     45.157  -102.857
9948.49     45.795  -116.223
10093.2     46.723  -132.228
10240.0     47.384  -150.579
10388.9     47.573  -169.722
10540.1     47.333   169.845
10693.4     46.764   150.111
10848.9     46.222   133.253
11006.7     46.148   117.613
11166.8     46.427   101.506
11329.2     46.788    84.504
11494.0     47.063    65.641
11661.2     47.086    45.575
11830.8     46.896    25.577
12002.9     46.590     5.615
12177.5     46.163   -14.048
12354.6     45.594   -33.185
12534.3     44.912   -51.591
12716.6     44.373   -69.536
12901.6     44.207   -87.790
13089.2     44.412  -106.338
13279.6     44.832  -126.192
13472.8     45.191  -148.009
13668.8     45.308  -170.416
13867.6     45.165   166.862
14069.3     44.882   143.667
14273.9     44.512   120.391
14481.5     43.994    96.381
14692.2     43.255    71.243
14905.9     42.246    46.095
15122.7     41.138    21.945
15342.7     40.372    -1.717
15565.8     40.321   -25.514
15792.2     40.881   -50.268
16021.9     41.582   -77.773
16255.0     41.991  -109.018
16491.4     41.899  -142.825
16731.3     41.306  -176.882
16974.7     40.426   151.110
17221.6     39.487   122.918
17472.1     38.600    98.299
17726.2     37.883    76.797
17984.0     37.373    57.430
18245.6     37.226    36.794
18511.0     37.800    13.549
18780.2     38.839   -12.657
19053.4     40.033   -43.150
19330.5     41.240   -76.719
19611.7     42.240  -111.347
19897.0     43.095  -145.868
20186.4     43.925  -179.880
20480.0     44.567   146.062
20777.9     44.941   110.947
21080.1     45.030    73.543
21386.7     44.649    33.714
21697.8     43.772    -8.653
22013.4     42.609   -54.705
22333.6     41.217  -105.727
22658.4     39.653  -160.750
22988.0     38.227   144.610
23322.4     37.110    92.217
23661.6     36.288    41.668
24005.8     35.831    -5.823
24355.0     35.420   -50.347
24709.2     34.679   -91.070
25068.6     33.694  -126.342
25433.2     32.641  -158.459
25803.2     31.994   169.633
26178.5     32.352   134.181
26559.3     33.516    90.201
26945.6     34.967    40.034
27337.5     36.058    -9.459
27735.2     36.644   -54.622
28138.6     37.013   -92.250
28547.9     37.342  -122.380
28963.1     37.857  -149.899
29384.4     38.756  -178.306
29811.8     39.891   149.720
30245.4     40.953   112.052
30685.3     41.719    69.816
31131.7     42.151    25.200
31584.5     42.205   -20.099
32043.9     41.839   -64.635
32510.0     41.210  -108.780
32982.8     40.518  -153.048
33462.6     39.933   163.572
33949.3     39.828   120.693
34443.1     40.249    76.935
34944.1     40.705    32.544
35452.4     40.986   -12.350
35968.0     40.942   -58.772
36491.2     40.462  -105.700
37022.0     39.898  -150.675
37560.5     39.581   167.616
38106.8     39.620   132.332
38661.1     39.860   105.256
39223.4     40.159    88.995
