Freq[Hz]     dBSPL  Phase[Deg]
Freq[Hz]     dBSPL  Phase[Deg]
5.00000    -11.735   -12.698
5.07273    -11.379   -12.787
5.14651    -10.992   -12.884
5.22137    -10.559   -12.990
5.29732    -10.108   -13.102
5.37437     -9.635   -13.219
5.45254     -9.163   -13.338
5.53185     -8.691   -13.459
5.61231     -8.218   -13.581
5.69394     -7.746   -13.705
5.77676     -7.274   -13.831
5.86079     -6.801   -13.959
5.94604     -6.329   -14.089
6.03252     -5.856   -14.221
6.12027     -5.384   -14.354
6.20929     -4.911   -14.490
6.29961     -4.439   -14.627
6.39124     -3.967   -14.767
6.48420     -3.494   -14.908
6.57851     -3.021   -15.052
6.67420     -2.549   -15.197
6.77128     -2.076   -15.345
6.86977     -1.604   -15.495
6.96969     -1.131   -15.647
7.07107     -0.659   -15.801
7.17392     -0.186   -15.958
7.27827      0.287   -16.117
7.38413      0.759   -16.278
7.49154      1.232   -16.441
7.60050      1.705   -16.607
7.71105      2.178   -16.776
7.82321      2.650   -16.946
7.93701      3.123   -17.120
8.05245      3.596   -17.296
8.16958      4.069   -17.474
8.28841      4.542   -17.655
8.40896      5.015   -17.839
8.53128      5.488   -18.025
8.65537      5.961   -18.214
8.78126      6.434   -18.406
8.90899      6.907   -18.600
9.03857      7.380   -18.798
9.17004      7.853   -18.998
9.30342      8.326   -19.201
9.43874      8.800   -19.408
9.57603      9.273   -19.617
9.71532      9.746   -19.829
9.85663     10.219   -20.045
10.0000     10.693   -20.263
10.1455     11.166   -20.485
10.2930     11.640   -20.710
10.4427     12.113   -20.939
10.5946     12.587   -21.170
10.7487     13.061   -21.405
10.9051     13.534   -21.644
11.0637     14.008   -21.886
11.2246     14.482   -22.132
11.3879     14.956   -22.381
11.5535     15.430   -22.634
11.7216     15.904   -22.891
11.8921     16.378   -23.151
12.0650     16.852   -23.416
12.2405     17.326   -23.684
12.4186     17.801   -23.956
12.5992     18.275   -24.232
12.7825     18.749   -24.512
12.9684     19.224   -24.797
13.1570     19.699   -25.086
13.3484     20.173   -25.379
13.5426     20.648   -25.676
13.7395     21.123   -25.978
13.9394     21.598   -26.284
14.1421     22.073   -26.594
14.3478     22.548   -26.910
14.5565     23.024   -27.230
14.7683     23.499   -27.555
14.9831     23.975   -27.885
15.2010     24.450   -28.219
15.4221     24.926   -28.559
15.6464     25.402   -28.904
15.8740     25.878   -29.254
16.1049     26.354   -29.609
16.3392     26.831   -29.969
16.5768     27.307   -30.335
16.8179     27.784   -30.707
17.0626     28.261   -31.084
17.3107     28.738   -31.467
17.5625     29.215   -31.856
17.8180     29.692   -32.250
18.0771     30.170   -32.651
18.3401     30.648   -33.058
18.6068     31.126   -33.471
18.8775     31.604   -33.891
19.1521     32.082   -34.316
19.4306     32.561   -34.749
19.7133     33.039   -35.199
20.0000     33.514   -35.679
20.2909     33.982   -36.190
20.5860     34.441   -36.701
20.8855     34.888   -37.111
21.1893     35.324   -37.379
21.4975     35.756   -37.589
21.8102     36.192   -37.810
22.1274     36.639   -38.071
22.4492     37.102   -38.351
22.7758     37.584   -38.608
23.1071     38.083   -38.913
23.4432     38.596   -39.304
23.7841     39.114   -39.883
24.1301     39.631   -40.793
24.4811     40.141   -41.896
24.8372     40.635   -42.976
25.1984     41.117   -43.934
25.5649     41.588   -44.698
25.9368     42.056   -45.360
26.3141     42.527   -46.047
26.6968     43.003   -46.826
27.0851     43.484   -47.742
27.4791     43.968   -48.764
27.8788     44.451   -49.809
28.2843     44.930   -50.788
28.6957     45.408   -51.708
29.1131     45.884   -52.628
29.5365     46.360   -53.582
29.9661     46.836   -54.622
30.4020     47.311   -55.679
30.8442     47.786   -56.721
31.2929     48.262   -57.784
31.7480     48.737   -58.903
32.2098     49.209   -60.151
32.6783     49.677   -61.524
33.1536     50.135   -62.744
33.6359     50.590   -63.622
34.1251     51.051   -64.087
34.6215     51.539   -64.505
35.1250     52.058   -65.199
35.6359     52.598   -66.322
36.1543     53.140   -67.682
36.6802     53.672   -69.110
37.2137     54.194   -70.470
37.7550     54.709   -71.749
38.3041     55.226   -73.091
38.8613     55.751   -74.717
39.4265     56.275   -76.452
40.0000     56.794   -78.102
40.5818     57.307   -79.530
41.1721     57.822   -80.886
41.7710     58.342   -82.352
42.3785     58.869   -84.082
42.9949     59.396   -86.095
43.6203     59.915   -88.299
44.2548     60.421   -90.552
44.8985     60.910   -92.699
45.5515     61.386   -94.654
46.2141     61.856   -96.452
46.8863     62.329   -98.194
47.5683     62.809   -99.968
48.2602     63.297  -101.847
48.9621     63.794  -103.845
49.6743     64.296  -105.939
50.3968     64.801  -108.113
51.1299     65.305  -110.346
51.8736     65.808  -112.627
52.6281     66.307  -114.967
53.3936     66.803  -117.385
54.1702     67.293  -119.892
54.9581     67.776  -122.474
55.7575     68.253  -125.134
56.5685     68.724  -127.877
57.3914     69.186  -130.676
58.2261     69.641  -133.512
59.0730     70.088  -136.407
59.9323     70.525  -139.384
60.8040     70.952  -142.443
61.6884     71.367  -145.571
62.5857     71.772  -148.766
63.4960     72.166  -152.025
64.4196     72.543  -155.338
65.3566     72.903  -158.703
66.3073     73.245  -162.115
67.2717     73.572  -165.563
68.2502     73.888  -169.028
69.2429     74.194  -172.513
70.2501     74.489  -176.033
71.2719     74.765  -179.602
72.3086     75.016   176.806
73.3603     75.242   173.237
74.4274     75.445   169.715
75.5099     75.631   166.250
76.6083     75.803   162.832
77.7226     75.962   159.441
78.8531     76.107   156.078
80.0000     76.237   152.745
81.1636     76.352   149.467
82.3442     76.453   146.273
83.5419     76.540   143.159
84.7570     76.616   140.124
85.9899     76.682   137.174
87.2406     76.741   134.306
88.5096     76.792   131.515
89.7970     76.839   128.799
91.1031     76.883   126.146
92.4282     76.926   123.547
93.7726     76.966   121.000
95.1366     77.001   118.503
96.5204     77.033   116.046
97.9243     77.060   113.628
99.3486     77.081   111.257
100.794     77.098   108.937
102.260     77.109   106.673
103.747     77.118   104.480
105.256     77.127   102.361
106.787     77.140   100.284
108.340     77.155    98.215
109.916     77.168    96.156
111.515     77.176    94.118
113.137     77.177    92.111
114.783     77.174    90.157
116.452     77.171    88.252
118.146     77.168    86.368
119.865     77.164    84.492
121.608     77.154    82.632
123.377     77.137    80.815
125.171     77.114    79.072
126.992     77.091    77.402
128.839     77.072    75.787
130.713     77.057    74.203
132.615     77.045    72.618
134.543     77.032    71.025
136.500     77.012    69.449
138.486     76.987    67.921
140.500     76.963    66.460
142.544     76.942    65.061
144.617     76.927    63.704
146.721     76.918    62.360
148.855     76.912    61.009
151.020     76.907    59.646
153.217     76.898    58.283
155.445     76.888    56.935
157.706     76.879    55.597
160.000     76.866    54.261
162.327     76.851    52.945
164.688     76.833    51.661
167.084     76.815    50.419
169.514     76.801    49.220
171.980     76.792    48.031
174.481     76.784    46.827
177.019     76.775    45.613
179.594     76.762    44.388
182.206     76.744    43.170
184.856     76.723    41.985
187.545     76.702    40.828
190.273     76.681    39.696
193.041     76.659    38.598
195.849     76.641    37.524
198.697     76.626    36.454
201.587     76.614    35.355
204.520     76.595    34.214
207.494     76.564    33.082
210.512     76.521    32.038
213.574     76.475    31.136
216.681     76.444    30.352
219.833     76.435    29.581
223.030     76.443    28.723
226.274     76.454    27.724
229.565     76.454    26.612
232.905     76.437    25.493
236.292     76.407    24.446
239.729     76.375    23.494
243.216     76.347    22.619
246.754     76.324    21.776
250.343     76.306    20.946
253.984     76.292    20.129
257.678     76.284    19.323
261.426     76.287    18.498
265.229     76.299    17.582
269.087     76.305    16.549
273.001     76.297    15.456
276.972     76.272    14.365
281.000     76.232    13.378
285.088     76.195    12.556
289.234     76.175    11.813
293.441     76.175    11.036
297.709     76.187    10.158
302.040     76.199     9.160
306.433     76.203     8.077
310.890     76.193     6.923
315.412     76.160     5.754
320.000     76.109     4.650
324.655     76.046     3.611
329.377     75.976     2.666
334.168     75.915     1.827
339.028     75.867     1.002
343.959     75.823     0.134
348.962     75.777    -0.764
354.038     75.718    -1.676
359.188     75.644    -2.533
364.412     75.565    -3.281
369.713     75.491    -3.965
375.090     75.424    -4.605
380.546     75.365    -5.212
386.081     75.312    -5.847
391.697     75.253    -6.488
397.394     75.185    -7.113
403.175     75.102    -7.678
409.039     75.009    -8.027
414.989     74.941    -8.145
421.025     74.913    -8.172
427.149     74.925    -8.233
433.362     74.972    -8.473
439.665     75.024    -9.017
446.060     75.052    -9.758
452.548     75.064   -10.500
459.131     75.074   -11.265
465.809     75.082   -12.120
472.584     75.085   -13.078
479.458     75.068   -14.186
486.432     75.002   -15.345
493.507     74.884   -16.256
500.686     74.752   -16.700
507.968     74.652   -16.756
515.357     74.604   -16.596
522.853     74.622   -16.389
530.458     74.702   -16.400
538.174     74.811   -16.795
546.002     74.927   -17.602
553.943     75.019   -18.795
562.001     75.053   -20.197
570.175     75.017   -21.581
578.469     74.916   -22.648
586.883     74.805   -23.196
595.419     74.730   -23.420
604.080     74.707   -23.620
612.866     74.729   -24.007
621.780     74.744   -24.644
630.824     74.731   -25.337
640.000     74.715   -25.888
649.309     74.714   -26.285
658.753     74.758   -26.696
668.335     74.835   -27.343
678.056     74.900   -28.288
687.919     74.937   -29.347
697.925     74.957   -30.348
708.077     74.982   -31.439
718.376     74.973   -32.862
728.825     74.863   -34.132
739.426     74.737   -34.689
750.181     74.692   -34.854
761.093     74.720   -35.115
772.163     74.772   -35.586
783.394     74.839   -36.164
794.789     74.924   -36.906
806.349     75.013   -37.902
818.078     75.097   -39.162
829.977     75.156   -40.712
842.050     75.165   -42.330
854.298     75.146   -43.693
866.724     75.122   -44.888
879.330     75.087   -45.969
892.120     75.073   -46.845
905.097     75.097   -47.766
918.262     75.127   -48.883
931.618     75.166   -50.106
945.169     75.216   -51.445
958.917     75.250   -52.884
972.864     75.285   -54.471
987.015     75.321   -56.283
1001.37     75.333   -58.197
1015.94     75.342   -60.222
1030.71     75.331   -62.471
1045.71     75.260   -64.755
1060.92     75.140   -66.924
1076.35     74.965   -68.979
1092.00     74.734   -70.744
1107.89     74.484   -72.093
1124.00     74.241   -72.992
1140.35     74.025   -73.440
1156.94     73.857   -73.557
1173.77     73.770   -73.470
1190.84     73.785   -73.472
1208.16     73.874   -73.815
1225.73     74.014   -74.568
1243.56     74.175   -75.896
1261.65     74.301   -77.760
1280.00     74.361   -79.892
1298.62     74.343   -82.041
1317.51     74.288   -83.875
1336.67     74.257   -85.486
1356.11     74.227   -87.184
1375.84     74.185   -88.856
1395.85     74.145   -90.555
1416.15     74.068   -92.287
1436.75     73.974   -93.754
1457.65     73.916   -95.096
1478.85     73.880   -96.429
1500.36     73.872   -97.773
1522.19     73.884   -99.320
1544.33     73.887  -100.949
1566.79     73.884  -102.611
1589.58     73.867  -104.279
1612.70     73.848  -105.834
1636.16     73.871  -107.475
1659.95     73.914  -109.477
1684.10     73.917  -111.903
1708.60     73.840  -114.357
1733.45     73.704  -116.316
1758.66     73.571  -117.722
1784.24     73.486  -118.711
1810.19     73.478  -119.581
1836.52     73.556  -120.644
1863.24     73.688  -122.021
1890.34     73.856  -123.952
1917.83     74.030  -126.402
1945.73     74.177  -129.158
1974.03     74.272  -132.299
2002.74     74.279  -135.657
2031.87     74.194  -138.883
2061.43     74.045  -141.894
2091.41     73.855  -144.549
2121.83     73.663  -146.704
2152.69     73.523  -148.495
2184.01     73.455  -150.120
2215.77     73.444  -151.815
2248.00     73.462  -153.855
2280.70     73.488  -156.307
2313.87     73.481  -159.000
2347.53     73.418  -161.635
2381.68     73.333  -163.948
2416.32     73.244  -165.824
2451.46     73.161  -167.239
2487.12     73.123  -168.280
2523.30     73.165  -169.238
2560.00     73.293  -170.487
2597.24     73.472  -172.229
2635.01     73.652  -174.585
2673.34     73.781  -177.586
2712.23     73.789   179.144
2751.68     73.676   176.135
2791.70     73.496   173.740
2832.31     73.301   172.106
2873.50     73.160   171.095
2915.30     73.125   170.303
2957.70     73.181   169.284
3000.72     73.268   167.791
3044.37     73.323   165.864
3088.65     73.299   163.782
3133.58     73.204   162.156
3179.16     73.163   160.861
3225.40     73.129   159.546
3272.31     73.121   158.570
3319.91     73.181   157.767
3368.20     73.307   156.827
3417.19     73.451   155.532
3466.89     73.570   153.868
3517.32     73.653   151.937
3568.48     73.694   149.943
3620.39     73.707   148.125
3673.05     73.725   146.479
3726.47     73.752   144.840
3780.67     73.768   143.140
3835.67     73.756   141.401
3891.46     73.708   139.734
3948.06     73.644   138.284
4005.49     73.602   137.038
4063.75     73.599   135.720
4122.86     73.607   134.078
4182.82     73.574   132.177
4243.66     73.461   130.358
4305.39     73.281   129.074
4368.01     73.097   128.512
4431.55     72.974   128.390
4496.01     72.936   128.294
4561.40     72.957   127.905
4627.75     72.983   127.122
4695.06     72.978   126.186
4763.35     72.955   125.342
4832.64     72.944   124.603
4902.93     72.974   123.653
4974.24     72.939   121.972
5046.60     72.761   120.750
5120.00     72.604   120.176
5194.47     72.486   119.643
5270.03     72.365   118.974
5346.68     72.206   118.303
5424.45     71.998   117.873
5503.35     71.767   117.893
5583.40     71.547   118.325
5664.61     71.355   118.985
5747.01     71.189   119.769
5830.60     71.054   120.625
5915.41     70.958   121.502
6001.45     70.898   122.292
6088.74     70.856   122.918
6177.30     70.800   123.438
6267.15     70.710   124.025
6358.31     70.601   124.901
6450.80     70.498   126.145
6544.62     70.428   127.638
6639.82     70.403   129.198
6736.40     70.400   130.725
6834.38     70.418   132.277
6933.79     70.483   133.834
7034.64     70.586   135.221
7136.96     70.717   136.425
7240.77     70.889   137.482
7346.09     71.080   138.199
7452.94     71.256   138.496
7561.35     71.396   138.495
7671.33     71.481   138.271
7782.91     71.500   137.985
7896.12     71.454   137.855
8010.97     71.359   138.020
8127.49     71.250   138.578
8245.71     71.163   139.484
8365.65     71.122   140.527
8487.33     71.127   141.487
8610.78     71.149   142.338
8736.03     71.181   143.154
8863.09     71.221   143.849
8992.01     71.246   144.438
9122.80     71.263   145.092
9255.50     71.307   145.729
9390.12     71.390   146.074
9526.70     71.471   146.002
9665.27     71.505   145.616
9805.86     71.468   145.041
9948.49     71.323   144.455
10093.2     71.059   144.296
10240.0     70.732   144.865
10388.9     70.407   146.151
10540.1     70.135   147.962
10693.4     69.947   149.972
10848.9     69.833   151.828
11006.7     69.745   153.243
11166.8     69.618   154.311
11329.2     69.429   155.358
11494.0     69.188   156.634
11661.2     68.922   158.330
11830.8     68.674   160.421
12002.9     68.475   162.683
12177.5     68.315   164.870
12354.6     68.169   166.881
12534.3     68.013   168.720
12716.6     67.824   170.531
12901.6     67.616   172.529
13089.2     67.415   174.631
13279.6     67.214   176.701
13472.8     67.006   178.641
13668.8     66.771  -179.663
13867.6     66.488  -178.075
14069.3     66.141  -176.391
14273.9     65.719  -174.281
14481.5     65.245  -171.353
14692.2     64.747  -167.491
14905.9     64.272  -162.783
15122.7     63.878  -157.499
15342.7     63.597  -152.008
15565.8     63.444  -146.630
15792.2     63.405  -141.600
16021.9     63.447  -137.015
16255.0     63.516  -132.907
16491.4     63.560  -129.260
16731.3     63.549  -125.919
16974.7     63.458  -122.662
17221.6     63.288  -119.236
17472.1     63.055  -115.333
17726.2     62.773  -110.759
17984.0     62.485  -105.429
18245.6     62.247   -99.400
18511.0     62.098   -93.047
18780.2     62.072   -86.777
19053.4     62.180   -80.841
19330.5     62.394   -75.546
19611.7     62.665   -71.102
19897.0     62.939   -67.457
20186.4     63.171   -64.437
20480.0     63.339   -61.812
20777.9     63.431   -59.396
21080.1     63.443   -57.049
21386.7     63.382   -54.583
21697.8     63.265   -51.896
22013.4     63.118   -49.032
22333.6     62.945   -46.097
22658.4     62.727   -43.201
22988.0     62.437   -40.398
23322.4     62.035   -37.628
23661.6     61.485   -34.617
24005.8     60.785   -30.835
24355.0     59.961   -25.719
24709.2     59.086   -18.840
25068.6     58.286   -10.130
25433.2     57.685    -0.140
25803.2     57.335    10.241
26178.5     57.188    20.217
26559.3     57.148    29.414
26945.6     57.131    38.051
27337.5     57.111    46.704
27735.2     57.153    55.792
28138.6     57.339    65.155
28547.9     57.687    74.325
28963.1     58.155    82.802
29384.4     58.676    90.159
29811.8     59.182    96.366
30245.4     59.631   101.588
30685.3     59.996   105.977
31131.7     60.265   109.720
31584.5     60.429   112.965
32043.9     60.471   116.010
32510.0     60.387   119.284
32982.8     60.198   123.113
33462.6     59.938   127.700
33949.3     59.645   133.105
34443.1     59.360   139.186
34944.1     59.090   145.691
35452.4     58.818   152.683
35968.0     58.573   160.482
36491.2     58.448   168.945
37022.0     58.530   177.605
37560.5     58.874  -174.121
38106.8     59.375  -166.901
38661.1     59.911  -161.154
39223.4     60.336  -155.969
