Freq[Hz]     dBSPL  Phase[Deg]
Freq[Hz]     dBSPL  Phase[Deg]
5.00000    -11.953   -12.591
5.07273    -11.596   -12.682
5.14651    -11.208   -12.781
5.22137    -10.774   -12.891
5.29732    -10.322   -13.007
5.37437     -9.848   -13.129
5.45254     -9.375   -13.253
5.53185     -8.901   -13.379
5.61231     -8.428   -13.506
5.69394     -7.954   -13.635
5.77676     -7.481   -13.766
5.86079     -7.007   -13.899
5.94604     -6.534   -14.034
6.03252     -6.060   -14.171
6.12027     -5.587   -14.310
6.20929     -5.113   -14.451
6.29961     -4.639   -14.594
6.39124     -4.166   -14.739
6.48420     -3.692   -14.887
6.57851     -3.218   -15.036
6.67420     -2.745   -15.187
6.77128     -2.271   -15.341
6.86977     -1.797   -15.497
6.96969     -1.324   -15.656
7.07107     -0.850   -15.816
7.17392     -0.376   -15.979
7.27827      0.098   -16.144
7.38413      0.572   -16.312
7.49154      1.045   -16.482
7.60050      1.519   -16.655
7.71105      1.993   -16.830
7.82321      2.467   -17.008
7.93701      2.941   -17.188
8.05245      3.415   -17.371
8.16958      3.889   -17.557
8.28841      4.363   -17.745
8.40896      4.837   -17.936
8.53128      5.311   -18.130
8.65537      5.786   -18.327
8.78126      6.260   -18.526
8.90899      6.734   -18.729
9.03857      7.208   -18.934
9.17004      7.683   -19.143
9.30342      8.157   -19.354
9.43874      8.631   -19.569
9.57603      9.106   -19.787
9.71532      9.580   -20.008
9.85663     10.055   -20.232
10.0000     10.529   -20.459
10.1455     11.004   -20.690
10.2930     11.478   -20.925
10.4427     11.953   -21.162
10.5946     12.428   -21.403
10.7487     12.903   -21.648
10.9051     13.378   -21.897
11.0637     13.852   -22.148
11.2246     14.327   -22.404
11.3879     14.802   -22.664
11.5535     15.278   -22.927
11.7216     15.753   -23.194
11.8921     16.228   -23.465
12.0650     16.703   -23.740
12.2405     17.179   -24.019
12.4186     17.654   -24.303
12.5992     18.130   -24.590
12.7825     18.605   -24.882
12.9684     19.081   -25.178
13.1570     19.557   -25.478
13.3484     20.033   -25.783
13.5426     20.509   -26.092
13.7395     20.985   -26.406
13.9394     21.461   -26.725
14.1421     21.937   -27.048
14.3478     22.413   -27.376
14.5565     22.890   -27.709
14.7683     23.366   -28.047
14.9831     23.843   -28.391
15.2010     24.320   -28.739
15.4221     24.797   -29.092
15.6464     25.274   -29.451
15.8740     25.751   -29.815
16.1049     26.229   -30.185
16.3392     26.706   -30.560
16.5768     27.184   -30.940
16.8179     27.662   -31.327
17.0626     28.140   -31.719
17.3107     28.618   -32.118
17.5625     29.096   -32.522
17.8180     29.575   -32.933
18.0771     30.053   -33.349
18.3401     30.532   -33.773
18.6068     31.011   -34.202
18.8775     31.491   -34.638
19.1521     31.970   -35.081
19.4306     32.450   -35.531
19.7133     32.929   -36.010
20.0000     33.404   -36.544
20.2909     33.871   -37.141
20.5860     34.324   -37.752
20.8855     34.760   -38.182
21.1893     35.180   -38.342
21.4975     35.596   -38.361
21.8102     36.022   -38.368
22.1274     36.470   -38.474
22.4492     36.947   -38.730
22.7758     37.453   -39.096
23.1071     37.975   -39.580
23.4432     38.503   -40.146
23.7841     39.025   -40.863
24.1301     39.532   -41.870
24.4811     40.026   -43.032
24.8372     40.505   -44.127
25.1984     40.976   -45.070
25.5649     41.446   -45.814
25.9368     41.916   -46.471
26.3141     42.390   -47.179
26.6968     42.866   -48.000
27.0851     43.343   -48.964
27.4791     43.818   -50.024
27.8788     44.292   -51.084
28.2843     44.766   -52.056
28.6957     45.240   -52.953
29.1131     45.717   -53.848
29.5365     46.197   -54.796
29.9661     46.681   -55.862
30.4020     47.162   -56.982
30.8442     47.637   -58.113
31.2929     48.106   -59.269
31.7480     48.565   -60.435
32.2098     49.020   -61.658
32.6783     49.476   -62.938
33.1536     49.939   -64.051
33.6359     50.411   -64.880
34.1251     50.896   -65.419
34.6215     51.396   -65.989
35.1250     51.910   -66.822
35.6359     52.433   -67.983
36.1543     52.965   -69.290
36.6802     53.502   -70.654
37.2137     54.036   -72.019
37.7550     54.565   -73.406
38.3041     55.086   -74.919
38.8613     55.599   -76.677
39.4265     56.107   -78.454
40.0000     56.615   -80.075
40.5818     57.128   -81.475
41.1721     57.645   -82.846
41.7710     58.166   -84.363
42.3785     58.687   -86.150
42.9949     59.205   -88.189
43.6203     59.717   -90.378
44.2548     60.220   -92.593
44.8985     60.713   -94.708
45.5515     61.197   -96.656
46.2141     61.676   -98.479
46.8863     62.155  -100.272
47.5683     62.640  -102.110
48.2602     63.130  -104.053
48.9621     63.626  -106.111
49.6743     64.127  -108.257
50.3968     64.630  -110.480
51.1299     65.134  -112.762
51.8736     65.636  -115.091
52.6281     66.135  -117.476
53.3936     66.628  -119.936
54.1702     67.117  -122.481
54.9581     67.599  -125.103
55.7575     68.076  -127.800
56.5685     68.546  -130.580
57.3914     69.009  -133.423
58.2261     69.465  -136.307
59.0730     69.913  -139.250
59.9323     70.351  -142.275
60.8040     70.779  -145.384
61.6884     71.195  -148.561
62.5857     71.601  -151.805
63.4960     71.995  -155.119
64.4196     72.372  -158.494
65.3566     72.729  -161.921
66.3073     73.069  -165.398
67.2717     73.391  -168.906
68.2502     73.701  -172.418
69.2429     74.002  -175.937
70.2501     74.292  -179.480
71.2719     74.567   176.935
72.3086     74.818   173.326
73.3603     75.047   169.738
74.4274     75.254   166.186
75.5099     75.443   162.681
76.6083     75.616   159.216
77.7226     75.776   155.777
78.8531     75.920   152.376
80.0000     76.049   149.019
81.1636     76.164   145.737
82.3442     76.270   142.554
83.5419     76.369   139.438
84.7570     76.459   136.362
85.9899     76.541   133.328
87.2406     76.613   130.336
88.5096     76.673   127.398
89.7970     76.723   124.533
91.1031     76.768   121.742
92.4282     76.810   119.013
93.7726     76.847   116.341
95.1366     76.879   113.726
96.5204     76.905   111.161
97.9243     76.927   108.650
99.3486     76.945   106.198
100.794     76.959   103.802
102.260     76.972   101.454
103.747     76.981    99.157
105.256     76.989    96.910
106.787     76.996    94.698
108.340     77.001    92.510
109.916     77.002    90.355
111.515     76.999    88.241
113.137     76.990    86.182
114.783     76.981    84.197
116.452     76.977    82.260
118.146     76.977    80.328
119.865     76.977    78.384
121.608     76.972    76.432
123.377     76.956    74.496
125.171     76.932    72.630
126.992     76.903    70.848
128.839     76.877    69.138
130.713     76.856    67.477
132.615     76.839    65.832
134.543     76.824    64.191
136.500     76.808    62.568
138.486     76.792    60.966
140.500     76.777    59.386
142.544     76.760    57.837
144.617     76.745    56.326
146.721     76.735    54.837
148.855     76.728    53.350
151.020     76.724    51.845
153.217     76.719    50.313
155.445     76.707    48.761
157.706     76.687    47.216
160.000     76.657    45.713
162.327     76.623    44.293
164.688     76.594    42.951
167.084     76.574    41.642
169.514     76.561    40.328
171.980     76.554    38.985
174.481     76.543    37.600
177.019     76.526    36.208
179.594     76.501    34.852
182.206     76.472    33.558
184.856     76.448    32.323
187.545     76.433    31.111
190.273     76.424    29.879
193.041     76.416    28.618
195.849     76.408    27.334
198.697     76.397    26.030
201.587     76.382    24.706
204.520     76.360    23.367
207.494     76.330    22.038
210.512     76.292    20.749
213.574     76.248    19.530
216.681     76.200    18.392
219.833     76.153    17.340
223.030     76.115    16.368
226.274     76.093    15.412
229.565     76.083    14.427
232.905     76.085    13.423
236.292     76.102    12.365
239.729     76.125    11.178
243.216     76.141     9.848
246.754     76.140     8.429
250.343     76.114     6.982
253.984     76.064     5.594
257.678     75.998     4.387
261.426     75.939     3.364
265.229     75.905     2.403
269.087     75.892     1.367
273.001     75.886     0.178
276.972     75.867    -1.122
281.000     75.832    -2.402
285.088     75.792    -3.584
289.234     75.761    -4.705
293.441     75.749    -5.870
297.709     75.741    -7.191
302.040     75.714    -8.665
306.433     75.655   -10.133
310.890     75.574   -11.453
315.412     75.490   -12.572
320.000     75.429   -13.568
324.655     75.393   -14.616
329.377     75.371   -15.814
334.168     75.350   -17.195
339.028     75.309   -18.755
343.959     75.230   -20.383
348.962     75.116   -21.910
354.038     74.979   -23.247
359.188     74.832   -24.374
364.412     74.694   -25.295
369.713     74.587   -26.101
375.090     74.506   -26.976
380.546     74.427   -27.988
386.081     74.343   -29.033
391.697     74.253   -30.092
397.394     74.156   -31.233
403.175     74.045   -32.422
409.039     73.905   -33.596
414.989     73.734   -34.661
421.025     73.539   -35.401
427.149     73.359   -35.719
433.362     73.237   -35.791
439.665     73.184   -35.902
446.060     73.186   -36.334
452.548     73.197   -37.219
459.131     73.172   -38.407
465.809     73.098   -39.723
472.584     72.964   -40.929
479.458     72.794   -41.665
486.432     72.654   -41.931
493.507     72.573   -42.038
500.686     72.553   -42.209
507.968     72.587   -42.706
515.357     72.616   -43.759
522.853     72.588   -45.139
530.458     72.513   -46.517
538.174     72.401   -47.781
546.002     72.289   -48.808
553.943     72.221   -49.925
562.001     72.146   -51.558
570.175     71.992   -53.414
578.469     71.753   -55.101
586.883     71.433   -56.244
595.419     71.098   -56.537
604.080     70.842   -56.092
612.866     70.714   -55.343
621.780     70.731   -55.011
630.824     70.812   -55.520
640.000     70.849   -56.683
649.309     70.819   -58.225
658.753     70.732   -59.928
668.335     70.570   -61.525
678.056     70.361   -62.811
687.919     70.151   -63.941
697.925     69.923   -65.013
708.077     69.657   -65.979
718.376     69.338   -66.983
728.825     68.954   -67.568
739.426     68.589   -67.421
750.181     68.277   -66.863
761.093     68.008   -65.939
772.163     67.758   -64.815
783.394     67.491   -63.380
794.789     67.283   -61.390
806.349     67.238   -59.209
818.078     67.354   -57.291
829.977     67.563   -56.069
842.050     67.737   -55.653
854.298     67.817   -55.468
866.724     67.867   -55.420
879.330     67.890   -55.648
892.120     67.870   -55.505
905.097     67.926   -54.777
918.262     68.127   -54.028
931.618     68.405   -53.521
945.169     68.691   -53.358
958.917     68.972   -53.744
972.864     69.242   -54.630
987.015     69.499   -55.726
1001.37     69.781   -56.955
1015.94     70.109   -58.442
1030.71     70.438   -60.368
1045.71     70.698   -62.869
1060.92     70.855   -65.702
1076.35     70.928   -68.634
1092.00     70.949   -71.620
1107.89     70.939   -74.581
1124.00     70.874   -77.547
1140.35     70.733   -80.473
1156.94     70.518   -83.118
1173.77     70.220   -85.004
1190.84     69.927   -85.735
1208.16     69.757   -85.585
1225.73     69.756   -85.046
1243.56     69.955   -84.705
1261.65     70.284   -85.326
1280.00     70.616   -87.129
1298.62     70.875   -89.859
1317.51     70.998   -92.931
1336.67     71.034   -95.722
1356.11     71.076   -98.368
1375.84     71.123  -101.151
1395.85     71.164  -104.100
1416.15     71.178  -107.288
1436.75     71.117  -110.454
1457.65     70.979  -113.364
1478.85     70.815  -115.865
1500.36     70.682  -118.085
1522.19     70.571  -120.588
1544.33     70.429  -123.300
1566.79     70.233  -125.714
1589.58     70.008  -127.419
1612.70     69.851  -128.194
1636.16     69.887  -128.648
1659.95     70.114  -129.840
1684.10     70.399  -132.350
1708.60     70.619  -136.055
1733.45     70.711  -140.335
1758.66     70.666  -144.630
1784.24     70.530  -148.837
1810.19     70.360  -152.995
1836.52     70.166  -157.001
1863.24     69.931  -160.812
1890.34     69.646  -164.308
1917.83     69.308  -167.247
1945.73     68.929  -169.617
1974.03     68.564  -171.405
2002.74     68.281  -172.638
2031.87     68.159  -173.695
2061.43     68.204  -174.841
2091.41     68.368  -176.485
2121.83     68.591  -179.252
2152.69     68.754   176.846
2184.01     68.776   172.305
2215.77     68.676   167.746
2248.00     68.491   163.578
2280.70     68.255   159.798
2313.87     68.009   156.580
2347.53     67.810   153.963
2381.68     67.657   151.331
2416.32     67.488   148.419
2451.46     67.276   145.615
2487.12     67.068   142.960
2523.30     66.886   140.186
2560.00     66.696   137.379
2597.24     66.518   134.701
2635.01     66.383   131.838
2673.34     66.242   128.480
2712.23     66.073   124.803
2751.68     65.894   120.916
2791.70     65.672   116.878
2832.31     65.383   113.164
2873.50     65.045   110.187
2915.30     64.683   108.096
2957.70     64.335   107.080
3000.72     64.066   107.147
3044.37     63.924   107.704
3088.65     63.912   108.191
3133.58     64.059   108.610
3179.16     64.396   108.059
3225.40     64.729   106.350
3272.31     65.034   104.172
3319.91     65.279   101.603
3368.20     65.429    98.933
3417.19     65.510    96.400
3466.89     65.555    93.993
3517.32     65.612    91.924
3568.48     65.735    90.163
3620.39     65.936    88.231
3673.05     66.191    85.773
3726.47     66.425    82.676
3780.67     66.573    78.947
3835.67     66.626    74.832
3891.46     66.606    70.863
3948.06     66.556    67.462
4005.49     66.543    64.569
4063.75     66.610    61.714
4122.86     66.724    58.392
4182.82     66.802    54.399
4243.66     66.763    49.989
4305.39     66.583    45.802
4368.01     66.299    42.401
4431.55     65.986    39.860
4496.01     65.740    37.762
4561.40     65.587    35.494
4627.75     65.476    32.722
4695.06     65.339    29.552
4763.35     65.121    26.273
4832.64     64.811    23.266
4902.93     64.462    20.664
4974.24     64.033    18.189
5046.60     63.563    16.862
5120.00     63.270    16.278
5194.47     63.151    15.327
5270.03     63.120    13.599
5346.68     63.077    11.112
5424.45     62.950     8.179
5503.35     62.726     5.431
5583.40     62.431     3.234
5664.61     62.097     1.640
5747.01     61.730     0.572
5830.60     61.342    -0.127
5915.41     60.943    -0.419
6001.45     60.564    -0.224
6088.74     60.297     0.397
6177.30     60.200     0.838
6267.15     60.227     0.285
6358.31     60.287    -1.399
6450.80     60.304    -3.960
6544.62     60.207    -6.988
6639.82     59.947    -9.724
6736.40     59.561   -11.434
6834.38     59.138   -12.025
6933.79     58.699   -11.544
7034.64     58.260    -9.679
7136.96     57.955    -6.978
7240.77     57.806    -4.634
7346.09     57.721    -2.919
7452.94     57.732    -1.926
7561.35     57.782    -2.169
7671.33     57.708    -3.228
7782.91     57.500    -3.816
7896.12     57.245    -3.679
8010.97     56.894    -3.329
8127.49     56.416    -2.225
8245.71     56.004     0.058
8365.65     55.758     2.417
8487.33     55.611     4.507
8610.78     55.706     6.747
8736.03     56.036     8.283
8863.09     56.371     8.760
8992.01     56.715     8.615
9122.80     57.088     7.247
9255.50     57.308     4.294
9390.12     57.275     0.619
9526.70     57.065    -2.876
9665.27     56.720    -6.181
9805.86     56.198    -9.237
9948.49     55.567   -11.422
10093.2     54.890   -12.444
10240.0     54.125   -11.631
10388.9     53.394    -8.595
10540.1     52.930    -4.252
10693.4     52.871     0.229
10848.9     53.248     2.719
11006.7     53.746     1.531
11166.8     54.003    -2.471
11329.2     53.854    -7.687
11494.0     53.189   -11.843
11661.2     52.058   -12.218
11830.8     50.738    -8.203
12002.9     49.638    -1.288
12177.5     49.150     6.319
12354.6     49.244    12.424
12534.3     49.630    15.843
12716.6     50.003    16.995
12901.6     50.224    17.143
13089.2     50.358    17.317
13279.6     50.457    17.439
13472.8     50.501    16.861
13668.8     50.386    15.684
13867.6     50.042    14.515
14069.3     49.556    14.133
14273.9     49.035    14.966
14481.5     48.601    16.626
14692.2     48.340    18.744
14905.9     48.206    20.848
15122.7     48.163    22.510
15342.7     48.210    24.191
15565.8     48.368    26.145
15792.2     48.669    28.144
16021.9     49.091    30.038
16255.0     49.568    31.142
16491.4     50.027    30.710
16731.3     50.348    28.579
16974.7     50.414    24.913
17221.6     50.199    20.539
17472.1     49.690    16.956
17726.2     48.901    15.276
17984.0     47.936    16.046
18245.6     46.949    19.536
18511.0     46.160    24.751
18780.2     45.747    29.962
19053.4     45.701    34.128
19330.5     45.935    36.428
19611.7     46.297    36.534
19897.0     46.577    35.157
20186.4     46.690    33.137
20480.0     46.586    31.337
20777.9     46.177    30.408
21080.1     45.425    30.554
21386.7     44.368    32.324
21697.8     43.236    35.637
22013.4     42.436    39.857
22333.6     42.178    44.517
22658.4     42.461    48.290
22988.0     42.986    50.058
23322.4     43.290    49.428
23661.6     43.234    46.584
24005.8     42.879    43.046
24355.0     42.253    40.140
24709.2     41.419    38.459
25068.6     40.387    38.735
25433.2     39.141    40.238
25803.2     37.708    40.851
26178.5     36.160    40.366
26559.3     34.735    40.679
26945.6     33.800    44.878
27337.5     33.573    55.430
27735.2     33.899    71.443
28138.6     34.445    90.183
28547.9     35.064   108.099
28963.1     35.863   121.467
29384.4     36.981   129.254
29811.8     38.410   132.827
30245.4     39.900   133.343
30685.3     41.057   131.280
31131.7     41.765   127.900
31584.5     42.114   124.673
32043.9     42.170   122.050
32510.0     42.151   120.281
32982.8     42.301   119.002
33462.6     42.537   117.174
33949.3     42.726   114.618
34443.1     42.801   111.754
34944.1     42.715   108.891
35452.4     42.593   106.109
35968.0     42.565   102.327
36491.2     42.554    96.090
37022.0     42.471    87.398
37560.5     42.324    77.266
38106.8     42.002    67.494
38661.1     41.695    61.434
39223.4     41.476    59.662
