Freq[Hz]     dBSPL  Phase[Deg]
Freq[Hz]     dBSPL  Phase[Deg]
5.00000    -11.496   -14.536
5.07273    -11.141   -14.621
5.14651    -10.754   -14.712
5.22137    -10.322   -14.811
5.29732     -9.872   -14.914
5.37437     -9.401   -15.023
5.45254     -8.930   -15.132
5.53185     -8.459   -15.244
5.61231     -7.988   -15.357
5.69394     -7.516   -15.472
5.77676     -7.045   -15.588
5.86079     -6.574   -15.706
5.94604     -6.103   -15.826
6.03252     -5.632   -15.947
6.12027     -5.161   -16.071
6.20929     -4.689   -16.196
6.29961     -4.218   -16.323
6.39124     -3.747   -16.452
6.48420     -3.276   -16.582
6.57851     -2.804   -16.715
6.67420     -2.333   -16.849
6.77128     -1.862   -16.986
6.86977     -1.390   -17.124
6.96969     -0.919   -17.265
7.07107     -0.448   -17.407
7.17392      0.024   -17.552
7.27827      0.495   -17.699
7.38413      0.967   -17.848
7.49154      1.438   -17.999
7.60050      1.910   -18.152
7.71105      2.381   -18.308
7.82321      2.853   -18.465
7.93701      3.324   -18.626
8.05245      3.796   -18.788
8.16958      4.268   -18.953
8.28841      4.739   -19.120
8.40896      5.211   -19.290
8.53128      5.683   -19.462
8.65537      6.155   -19.637
8.78126      6.627   -19.814
8.90899      7.098   -19.994
9.03857      7.570   -20.176
9.17004      8.042   -20.362
9.30342      8.514   -20.549
9.43874      8.986   -20.740
9.57603      9.458   -20.934
9.71532      9.930   -21.130
9.85663     10.402   -21.329
10.0000     10.875   -21.531
10.1455     11.347   -21.736
10.2930     11.819   -21.944
10.4427     12.291   -22.155
10.5946     12.764   -22.370
10.7487     13.236   -22.587
10.9051     13.709   -22.808
11.0637     14.181   -23.031
11.2246     14.654   -23.259
11.3879     15.127   -23.489
11.5535     15.599   -23.723
11.7216     16.072   -23.960
11.8921     16.545   -24.201
12.0650     17.018   -24.446
12.2405     17.491   -24.694
12.4186     17.964   -24.945
12.5992     18.437   -25.201
12.7825     18.910   -25.460
12.9684     19.384   -25.723
13.1570     19.857   -25.990
13.3484     20.331   -26.261
13.5426     20.804   -26.536
13.7395     21.278   -26.815
13.9394     21.752   -27.098
14.1421     22.225   -27.385
14.3478     22.699   -27.677
14.5565     23.174   -27.973
14.7683     23.648   -28.274
14.9831     24.122   -28.579
15.2010     24.597   -28.888
15.4221     25.071   -29.202
15.6464     25.546   -29.521
15.8740     26.021   -29.845
16.1049     26.496   -30.174
16.3392     26.971   -30.507
16.5768     27.446   -30.846
16.8179     27.922   -31.190
17.0626     28.397   -31.539
17.3107     28.873   -31.893
17.5625     29.349   -32.253
17.8180     29.825   -32.618
18.0771     30.301   -32.989
18.3401     30.778   -33.365
18.6068     31.255   -33.747
18.8775     31.732   -34.136
19.1521     32.209   -34.530
19.4306     32.686   -34.930
19.7133     33.162   -35.356
20.0000     33.633   -35.834
20.2909     34.093   -36.374
20.5860     34.538   -36.944
20.8855     34.968   -37.382
21.1893     35.384   -37.607
21.4975     35.795   -37.696
21.8102     36.215   -37.724
22.1274     36.653   -37.770
22.4492     37.119   -37.892
22.7758     37.614   -38.084
23.1071     38.131   -38.417
23.4432     38.660   -38.901
23.7841     39.188   -39.591
24.1301     39.702   -40.588
24.4811     40.201   -41.735
24.8372     40.684   -42.800
25.1984     41.157   -43.699
25.5649     41.626   -44.389
25.9368     42.098   -44.988
26.3141     42.574   -45.642
26.6968     43.055   -46.420
27.0851     43.536   -47.359
27.4791     44.017   -48.406
27.8788     44.494   -49.460
28.2843     44.969   -50.425
28.6957     45.442   -51.306
29.1131     45.918   -52.174
29.5365     46.398   -53.086
29.9661     46.881   -54.108
30.4020     47.363   -55.187
30.8442     47.839   -56.282
31.2929     48.308   -57.404
31.7480     48.767   -58.538
32.2098     49.222   -59.722
32.6783     49.680   -60.950
33.1536     50.147   -62.009
33.6359     50.626   -62.795
34.1251     51.118   -63.308
34.6215     51.622   -63.877
35.1250     52.136   -64.727
35.6359     52.657   -65.914
36.1543     53.183   -67.231
36.6802     53.712   -68.572
37.2137     54.241   -69.880
37.7550     54.765   -71.182
38.3041     55.284   -72.597
38.8613     55.799   -74.268
39.4265     56.312   -75.983
40.0000     56.825   -77.562
40.5818     57.341   -78.932
41.1721     57.861   -80.277
41.7710     58.383   -81.765
42.3785     58.906   -83.524
42.9949     59.426   -85.539
43.6203     59.937   -87.709
44.2548     60.439   -89.902
44.8985     60.929   -91.989
45.5515     61.409   -93.898
46.2141     61.885   -95.672
46.8863     62.363   -97.407
47.5683     62.847   -99.185
48.2602     63.337  -101.068
48.9621     63.834  -103.069
49.6743     64.336  -105.166
50.3968     64.841  -107.347
51.1299     65.345  -109.591
51.8736     65.847  -111.883
52.6281     66.343  -114.226
53.3936     66.834  -116.632
54.1702     67.319  -119.110
54.9581     67.801  -121.655
55.7575     68.279  -124.280
56.5685     68.752  -126.995
57.3914     69.219  -129.780
58.2261     69.677  -132.616
59.0730     70.127  -135.516
59.9323     70.565  -138.500
60.8040     70.991  -141.563
61.6884     71.405  -144.691
62.5857     71.807  -147.877
63.4960     72.198  -151.120
64.4196     72.574  -154.413
65.3566     72.932  -157.753
66.3073     73.274  -161.144
67.2717     73.600  -164.573
68.2502     73.914  -168.020
69.2429     74.219  -171.486
70.2501     74.512  -174.985
71.2719     74.787  -178.532
72.3086     75.038   177.901
73.3603     75.266   174.360
74.4274     75.471   170.867
75.5099     75.657   167.431
76.6083     75.830   164.043
77.7226     75.991   160.683
78.8531     76.137   157.351
80.0000     76.269   154.054
81.1636     76.387   150.820
82.3442     76.492   147.673
83.5419     76.587   144.594
84.7570     76.672   141.571
85.9899     76.746   138.607
87.2406     76.810   135.707
88.5096     76.863   132.880
89.7970     76.910   130.137
91.1031     76.952   127.472
92.4282     76.994   124.867
93.7726     77.032   122.316
95.1366     77.065   119.818
96.5204     77.095   117.364
97.9243     77.119   114.961
99.3486     77.138   112.615
100.794     77.154   110.324
102.260     77.167   108.085
103.747     77.178   105.901
105.256     77.188   103.775
106.787     77.198   101.684
108.340     77.208    99.613
109.916     77.214    97.570
111.515     77.216    95.564
113.137     77.213    93.601
114.783     77.209    91.702
116.452     77.205    89.849
118.146     77.204    88.008
119.865     77.201    86.172
121.608     77.192    84.350
123.377     77.176    82.566
125.171     77.155    80.859
126.992     77.133    79.230
128.839     77.117    77.654
130.713     77.105    76.101
132.615     77.097    74.535
134.543     77.086    72.954
136.500     77.068    71.387
138.486     77.044    69.862
140.500     77.018    68.401
142.544     76.993    67.013
144.617     76.973    65.689
146.721     76.962    64.400
148.855     76.957    63.112
151.020     76.957    61.801
153.217     76.957    60.461
155.445     76.953    59.103
157.706     76.945    57.739
160.000     76.929    56.391
162.327     76.910    55.086
164.688     76.890    53.822
167.084     76.871    52.588
169.514     76.855    51.381
171.980     76.840    50.183
174.481     76.823    48.990
177.019     76.805    47.822
179.594     76.786    46.682
182.206     76.770    45.562
184.856     76.756    44.451
187.545     76.743    43.328
190.273     76.727    42.196
193.041     76.707    41.078
195.849     76.684    39.991
198.697     76.661    38.934
201.587     76.640    37.886
204.520     76.615    36.830
207.494     76.584    35.799
210.512     76.546    34.837
213.574     76.510    33.980
216.681     76.484    33.217
219.833     76.475    32.487
223.030     76.483    31.700
226.274     76.500    30.770
229.565     76.509    29.713
232.905     76.502    28.613
236.292     76.485    27.529
239.729     76.459    26.499
243.216     76.428    25.529
246.754     76.396    24.600
250.343     76.361    23.691
253.984     76.320    22.831
257.678     76.277    22.083
261.426     76.247    21.439
265.229     76.241    20.806
269.087     76.254    20.062
273.001     76.269    19.138
276.972     76.265    18.084
281.000     76.236    17.037
285.088     76.190    16.115
289.234     76.143    15.340
293.441     76.114    14.641
297.709     76.103    13.899
302.040     76.093    13.066
306.433     76.076    12.202
310.890     76.050    11.362
315.412     76.019    10.600
320.000     75.999     9.912
324.655     75.994     9.178
329.377     75.997     8.325
334.168     75.996     7.351
339.028     75.982     6.261
343.959     75.941     5.138
348.962     75.880     4.115
354.038     75.813     3.183
359.188     75.739     2.309
364.412     75.662     1.537
369.713     75.595     0.790
375.090     75.526     0.016
380.546     75.449    -0.687
386.081     75.379    -1.331
391.697     75.310    -1.967
397.394     75.233    -2.612
403.175     75.142    -3.252
409.039     75.033    -3.754
414.989     74.926    -4.028
421.025     74.843    -4.100
427.149     74.797    -4.074
433.362     74.791    -4.126
439.665     74.803    -4.423
446.060     74.804    -4.980
452.548     74.778    -5.633
459.131     74.728    -6.245
465.809     74.661    -6.751
472.584     74.592    -7.034
479.458     74.546    -7.106
486.432     74.534    -7.132
493.507     74.550    -7.175
500.686     74.600    -7.299
507.968     74.677    -7.715
515.357     74.738    -8.471
522.853     74.762    -9.389
530.458     74.754   -10.347
538.174     74.716   -11.243
546.002     74.676   -12.064
553.943     74.642   -12.952
562.001     74.589   -13.867
570.175     74.514   -14.729
578.469     74.412   -15.479
586.883     74.290   -15.903
595.419     74.181   -16.021
604.080     74.109   -16.006
612.866     74.082   -15.997
621.780     74.071   -16.185
630.824     74.047   -16.489
640.000     74.024   -16.738
649.309     74.017   -16.959
658.753     74.043   -17.253
668.335     74.095   -17.722
678.056     74.149   -18.386
687.919     74.195   -19.200
697.925     74.234   -20.081
708.077     74.284   -21.173
718.376     74.289   -22.900
728.825     74.144   -24.797
739.426     73.910   -26.020
750.181     73.681   -26.630
761.093     73.472   -26.829
772.163     73.308   -26.543
783.394     73.236   -25.988
794.789     73.257   -25.682
806.349     73.317   -25.909
818.078     73.369   -26.645
829.977     73.385   -27.712
842.050     73.342   -28.797
854.298     73.271   -29.707
866.724     73.196   -30.584
879.330     73.091   -31.500
892.120     72.954   -32.242
905.097     72.794   -32.620
918.262     72.655   -32.526
931.618     72.583   -32.105
945.169     72.580   -31.611
958.917     72.675   -31.405
972.864     72.802   -31.933
987.015     72.859   -32.887
1001.37     72.869   -33.839
1015.94     72.840   -34.882
1030.71     72.768   -35.866
1045.71     72.697   -36.895
1060.92     72.604   -38.311
1076.35     72.417   -39.911
1092.00     72.090   -41.079
1107.89     71.677   -41.124
1124.00     71.302   -39.771
1140.35     71.076   -37.305
1156.94     71.096   -34.544
1173.77     71.338   -32.626
1190.84     71.633   -32.124
1208.16     71.846   -32.878
1225.73     71.916   -34.277
1243.56     71.844   -35.500
1261.65     71.696   -36.023
1280.00     71.556   -35.698
1298.62     71.523   -34.819
1317.51     71.651   -34.233
1336.67     71.859   -34.493
1356.11     72.058   -35.637
1375.84     72.188   -37.707
1395.85     72.171   -40.310
1416.15     72.006   -42.787
1436.75     71.756   -44.895
1457.65     71.465   -46.530
1478.85     71.175   -47.883
1500.36     70.890   -49.197
1522.19     70.622   -50.467
1544.33     70.375   -52.107
1566.79     70.082   -54.397
1589.58     69.687   -56.967
1612.70     69.204   -59.372
1636.16     68.674   -61.205
1659.95     68.144   -62.365
1684.10     67.662   -63.134
1708.60     67.263   -64.024
1733.45     66.970   -65.719
1758.66     66.763   -68.925
1784.24     66.512   -73.952
1810.19     66.117   -79.892
1836.52     65.601   -85.552
1863.24     65.070   -90.644
1890.34     64.701   -95.087
1917.83     64.632   -99.391
1945.73     64.806  -104.446
1974.03     65.083  -110.243
2002.74     65.369  -116.243
2031.87     65.605  -121.749
2061.43     65.880  -126.230
2091.41     66.293  -129.703
2121.83     66.805  -132.820
2152.69     67.368  -136.080
2184.01     67.884  -139.371
2215.77     68.281  -142.502
2248.00     68.591  -145.163
2280.70     68.895  -147.104
2313.87     69.258  -148.556
2347.53     69.666  -149.675
2381.68     70.067  -150.370
2416.32     70.447  -150.596
2451.46     70.825  -150.322
2487.12     71.250  -149.852
2523.30     71.710  -149.678
2560.00     72.137  -149.722
2597.24     72.498  -149.696
2635.01     72.776  -149.555
2673.34     72.958  -149.140
2712.23     73.099  -148.308
2751.68     73.273  -147.288
2791.70     73.472  -146.204
2832.31     73.665  -144.676
2873.50     73.895  -142.482
2915.30     74.172  -140.110
2957.70     74.419  -137.911
3000.72     74.618  -135.831
3044.37     74.773  -134.130
3088.65     74.813  -132.840
3133.58     74.722  -131.145
3179.16     74.626  -128.879
3225.40     74.473  -126.640
3272.31     74.231  -124.017
3319.91     73.933  -120.767
3368.20     73.635  -116.859
3417.19     73.386  -112.521
3466.89     73.172  -108.155
3517.32     72.933  -103.817
3568.48     72.643   -99.499
3620.39     72.244   -95.249
3673.05     71.692   -90.528
3726.47     71.042   -84.840
3780.67     70.349   -78.076
3835.67     69.666   -70.127
3891.46     69.044   -61.302
3948.06     68.461   -51.860
4005.49     67.917   -41.617
4063.75     67.386   -30.703
4122.86     66.824   -18.686
4182.82     66.355    -4.767
4243.66     66.143    11.064
4305.39     66.411    27.971
4368.01     67.242    43.505
4431.55     68.362    56.296
4496.01     69.539    66.431
4561.40     70.601    74.009
4627.75     71.419    79.669
4695.06     71.966    84.308
4763.35     72.238    88.808
4832.64     72.274    94.086
4902.93     72.167   100.402
4974.24     71.904   107.679
5046.60     71.565   116.810
5120.00     71.361   127.074
5194.47     71.298   137.489
5270.03     71.300   147.537
5346.68     71.270   157.114
5424.45     71.158   166.538
5503.35     70.971   176.212
5583.40     70.732  -173.607
5664.61     70.451  -162.781
5747.01     70.142  -151.223
5830.60     69.789  -138.837
5915.41     69.399  -125.434
6001.45     69.036  -110.840
6088.74     68.766   -95.122
6177.30     68.677   -78.677
6267.15     68.852   -62.170
6358.31     69.283   -46.457
6450.80     69.890   -32.295
6544.62     70.523   -20.099
6639.82     71.010    -9.899
6736.40     71.227    -1.215
6834.38     71.077     6.873
6933.79     70.500    15.694
7034.64     69.533    26.754
7136.96     68.290    41.225
7240.77     66.980    59.801
7346.09     65.961    82.069
7452.94     65.598   106.069
7561.35     65.878   129.362
7671.33     66.475   150.322
7782.91     67.067   168.909
7896.12     67.495  -173.734
8010.97     67.755  -156.683
8127.49     67.917  -139.393
8245.71     68.089  -121.682
8365.65     68.340  -104.018
8487.33     68.648   -86.960
8610.78     68.932   -70.707
8736.03     69.084   -54.958
8863.09     69.043   -38.848
8992.01     68.850   -21.555
9122.80     68.605    -2.893
9255.50     68.406    16.664
9390.12     68.262    36.416
9526.70     68.088    56.105
9665.27     67.797    76.235
9805.86     67.393    97.864
9948.49     67.044   121.410
10093.2     66.948   145.760
10240.0     67.097   169.409
10388.9     67.324  -168.605
10540.1     67.400  -148.525
10693.4     67.115  -129.096
10848.9     66.444  -108.173
11006.7     65.532   -84.443
11166.8     64.586   -57.778
11329.2     63.817   -28.874
11494.0     63.329     1.430
11661.2     63.174    32.531
11830.8     63.346    63.393
12002.9     63.699    93.096
12177.5     64.097   121.483
12354.6     64.420   148.203
12534.3     64.488   173.668
12716.6     64.255  -160.374
12901.6     63.818  -132.796
13089.2     63.290  -103.339
13279.6     62.784   -72.181
13472.8     62.364   -39.742
13668.8     62.077    -6.194
13867.6     61.999    27.951
14069.3     62.149    61.836
14273.9     62.433    94.881
14481.5     62.691   126.921
14692.2     62.799   158.434
14905.9     62.672  -169.626
15122.7     62.350  -136.211
15342.7     61.968  -100.845
15565.8     61.660   -64.122
15792.2     61.532   -26.865
16021.9     61.556    10.396
16255.0     61.711    47.403
16491.4     61.971    84.126
16731.3     62.218   120.381
16974.7     62.341   156.208
17221.6     62.233  -167.845
17472.1     61.865  -130.979
17726.2     61.354   -92.331
17984.0     60.866   -51.693
18245.6     60.520    -9.784
18511.0     60.330    32.511
18780.2     60.178    74.612
19053.4     59.893   116.314
19330.5     59.380   158.388
19611.7     58.681  -157.692
19897.0     57.924  -111.046
20186.4     57.319   -61.751
20480.0     57.105   -10.712
20777.9     57.324    40.648
21080.1     57.728    90.752
21386.7     58.072   138.818
21697.8     58.183  -174.178
22013.4     57.940  -126.771
22333.6     57.395   -77.919
22658.4     56.709   -26.954
22988.0     56.007    25.950
23322.4     55.389    80.554
23661.6     54.945   136.691
24005.8     54.689  -166.184
24355.0     54.559  -108.104
24709.2     54.486   -48.898
25068.6     54.432    11.128
25433.2     54.452    71.544
25803.2     54.593   131.893
26178.5     54.794  -168.138
26559.3     54.976  -108.545
26945.6     55.067   -48.713
27337.5     55.057    12.414
27735.2     55.042    75.328
28138.6     55.134   139.580
28547.9     55.308  -155.834
28963.1     55.469   -91.804
29384.4     55.536   -28.476
29811.8     55.413    34.839
30245.4     55.115    99.165
30685.3     54.766   164.870
31131.7     54.364  -128.256
31584.5     53.839   -60.370
32043.9     53.106     8.570
32510.0     52.035    79.629
32982.8     50.599   154.578
33462.6     48.979  -125.840
33949.3     47.546   -42.040
34443.1     46.747    44.600
34944.1     46.712   131.668
35452.4     47.115  -141.700
35968.0     47.737   -54.313
36491.2     48.498    33.720
37022.0     49.349   121.920
37560.5     50.465  -149.452
38106.8     51.653   -69.400
38661.1     52.910     1.659
39223.4     53.835    55.045
