Freq[Hz]     dBSPL  Phase[Deg]
Freq[Hz]     dBSPL  Phase[Deg]
5.00000    -11.758   -14.836
5.07273    -11.402   -14.922
5.14651    -11.015   -15.014
5.22137    -10.582   -15.114
5.29732    -10.130   -15.219
5.37437     -9.658   -15.330
5.45254     -9.185   -15.441
5.53185     -8.713   -15.555
5.61231     -8.241   -15.670
5.69394     -7.768   -15.786
5.77676     -7.296   -15.905
5.86079     -6.823   -16.025
5.94604     -6.351   -16.147
6.03252     -5.878   -16.270
6.12027     -5.406   -16.396
6.20929     -4.933   -16.523
6.29961     -4.461   -16.652
6.39124     -3.988   -16.783
6.48420     -3.516   -16.916
6.57851     -3.043   -17.051
6.67420     -2.571   -17.188
6.77128     -2.098   -17.327
6.86977     -1.625   -17.468
6.96969     -1.153   -17.611
7.07107     -0.680   -17.756
7.17392     -0.207   -17.903
7.27827      0.265   -18.052
7.38413      0.738   -18.204
7.49154      1.211   -18.357
7.60050      1.684   -18.513
7.71105      2.157   -18.672
7.82321      2.629   -18.832
7.93701      3.102   -18.995
8.05245      3.575   -19.160
8.16958      4.048   -19.328
8.28841      4.521   -19.498
8.40896      4.994   -19.671
8.53128      5.467   -19.846
8.65537      5.940   -20.024
8.78126      6.413   -20.205
8.90899      6.887   -20.388
9.03857      7.360   -20.573
9.17004      7.833   -20.762
9.30342      8.306   -20.953
9.43874      8.779   -21.147
9.57603      9.253   -21.344
9.71532      9.726   -21.544
9.85663     10.200   -21.747
10.0000     10.673   -21.952
10.1455     11.147   -22.161
10.2930     11.620   -22.373
10.4427     12.094   -22.588
10.5946     12.567   -22.806
10.7487     13.041   -23.027
10.9051     13.515   -23.252
11.0637     13.989   -23.479
11.2246     14.463   -23.711
11.3879     14.937   -23.945
11.5535     15.411   -24.183
11.7216     15.885   -24.425
11.8921     16.359   -24.670
12.0650     16.833   -24.919
12.2405     17.307   -25.171
12.4186     17.782   -25.427
12.5992     18.256   -25.687
12.7825     18.731   -25.951
12.9684     19.205   -26.219
13.1570     19.680   -26.490
13.3484     20.155   -26.766
13.5426     20.630   -27.046
13.7395     21.105   -27.330
13.9394     21.580   -27.618
14.1421     22.055   -27.911
14.3478     22.530   -28.208
14.5565     23.005   -28.509
14.7683     23.481   -28.815
14.9831     23.957   -29.125
15.2010     24.432   -29.440
15.4221     24.908   -29.760
15.6464     25.384   -30.084
15.8740     25.860   -30.414
16.1049     26.337   -30.748
16.3392     26.813   -31.088
16.5768     27.290   -31.432
16.8179     27.766   -31.782
17.0626     28.243   -32.137
17.3107     28.720   -32.498
17.5625     29.197   -32.864
17.8180     29.675   -33.235
18.0771     30.153   -33.613
18.3401     30.630   -33.996
18.6068     31.108   -34.385
18.8775     31.587   -34.780
19.1521     32.065   -35.181
19.4306     32.544   -35.588
19.7133     33.021   -36.022
20.0000     33.495   -36.507
20.2909     33.960   -37.057
20.5860     34.411   -37.634
20.8855     34.845   -38.076
21.1893     35.263   -38.302
21.4975     35.673   -38.396
21.8102     36.089   -38.438
22.1274     36.523   -38.502
22.4492     36.986   -38.636
22.7758     37.483   -38.825
23.1071     38.003   -39.146
23.4432     38.538   -39.613
23.7841     39.072   -40.295
24.1301     39.591   -41.307
24.4811     40.092   -42.487
24.8372     40.576   -43.587
25.1984     41.047   -44.516
25.5649     41.516   -45.227
25.9368     41.986   -45.840
26.3141     42.463   -46.506
26.6968     42.944   -47.298
27.0851     43.426   -48.254
27.4791     43.908   -49.322
27.8788     44.386   -50.398
28.2843     44.859   -51.381
28.6957     45.332   -52.275
29.1131     45.808   -53.153
29.5365     46.288   -54.076
29.9661     46.772   -55.116
30.4020     47.255   -56.218
30.8442     47.731   -57.338
31.2929     48.199   -58.483
31.7480     48.658   -59.638
32.2098     49.112   -60.844
32.6783     49.569   -62.101
33.1536     50.034   -63.191
33.6359     50.509   -64.001
34.1251     50.995   -64.524
34.6215     51.496   -65.084
35.1250     52.010   -65.916
35.6359     52.532   -67.089
36.1543     53.060   -68.405
36.6802     53.593   -69.759
37.2137     54.123   -71.091
37.7550     54.649   -72.424
38.3041     55.169   -73.871
38.8613     55.685   -75.572
39.4265     56.198   -77.315
40.0000     56.709   -78.915
40.5818     57.223   -80.292
41.1721     57.741   -81.634
41.7710     58.264   -83.114
42.3785     58.790   -84.871
42.9949     59.314   -86.896
43.6203     59.832   -89.092
44.2548     60.338   -91.329
44.8985     60.831   -93.473
45.5515     61.311   -95.441
46.2141     61.784   -97.265
46.8863     62.258   -99.039
47.5683     62.738  -100.844
48.2602     63.226  -102.746
48.9621     63.721  -104.763
49.6743     64.222  -106.875
50.3968     64.726  -109.071
51.1299     65.231  -111.334
51.8736     65.733  -113.645
52.6281     66.231  -116.012
53.3936     66.722  -118.447
54.1702     67.208  -120.958
54.9581     67.690  -123.539
55.7575     68.167  -126.198
56.5685     68.639  -128.948
57.3914     69.104  -131.766
58.2261     69.561  -134.632
59.0730     70.009  -137.559
59.9323     70.446  -140.566
60.8040     70.872  -143.654
61.6884     71.285  -146.806
62.5857     71.688  -150.018
63.4960     72.079  -153.291
64.4196     72.455  -156.619
65.3566     72.812  -159.999
66.3073     73.153  -163.432
67.2717     73.477  -166.904
68.2502     73.788  -170.387
69.2429     74.090  -173.878
70.2501     74.382  -177.391
71.2719     74.657   179.054
72.3086     74.910   175.473
73.3603     75.140   171.909
74.4274     75.347   168.380
75.5099     75.535   164.899
76.6083     75.708   161.461
77.7226     75.868   158.049
78.8531     76.013   154.670
80.0000     76.143   151.328
81.1636     76.259   148.055
82.3442     76.362   144.876
83.5419     76.456   141.770
84.7570     76.541   138.718
85.9899     76.617   135.721
87.2406     76.683   132.779
88.5096     76.738   129.901
89.7970     76.785   127.101
91.1031     76.827   124.378
92.4282     76.867   121.717
93.7726     76.905   119.114
95.1366     76.937   116.563
96.5204     76.964   114.059
97.9243     76.987   111.606
99.3486     77.005   109.212
100.794     77.020   106.873
102.260     77.033   104.583
103.747     77.042   102.344
105.256     77.050   100.161
106.787     77.058    98.017
108.340     77.065    95.899
109.916     77.070    93.815
111.515     77.070    91.770
113.137     77.067    89.770
114.783     77.064    87.831
116.452     77.063    85.932
118.146     77.065    84.033
119.865     77.066    82.126
121.608     77.060    80.219
123.377     77.045    78.338
125.171     77.021    76.536
126.992     76.996    74.821
128.839     76.975    73.170
130.713     76.960    71.549
132.615     76.949    69.916
134.543     76.936    68.261
136.500     76.916    66.615
138.486     76.889    65.010
140.500     76.859    63.474
142.544     76.829    62.020
144.617     76.804    60.640
146.721     76.789    59.304
148.855     76.783    57.968
151.020     76.783    56.604
153.217     76.783    55.200
155.445     76.780    53.769
157.706     76.771    52.330
160.000     76.755    50.909
162.327     76.736    49.536
164.688     76.717    48.204
167.084     76.702    46.892
169.514     76.690    45.586
171.980     76.678    44.269
174.481     76.662    42.943
177.019     76.640    41.639
179.594     76.616    40.379
182.206     76.593    39.158
184.856     76.574    37.963
187.545     76.560    36.763
190.273     76.545    35.542
193.041     76.527    34.318
195.849     76.507    33.109
198.697     76.486    31.916
201.587     76.466    30.716
204.520     76.441    29.493
207.494     76.408    28.274
210.512     76.364    27.108
213.574     76.315    26.043
216.681     76.269    25.089
219.833     76.235    24.208
223.030     76.216    23.338
226.274     76.212    22.394
229.565     76.212    21.351
232.905     76.208    20.256
236.292     76.202    19.136
239.729     76.191    17.991
243.216     76.173    16.827
246.754     76.147    15.650
250.343     76.108    14.473
253.984     76.056    13.341
257.678     75.992    12.335
261.426     75.934    11.487
265.229     75.898    10.727
269.087     75.889     9.915
273.001     75.893     8.944
276.972     75.887     7.813
281.000     75.861     6.623
285.088     75.815     5.492
289.234     75.760     4.470
293.441     75.715     3.544
297.709     75.685     2.612
302.040     75.657     1.605
306.433     75.623     0.582
310.890     75.581    -0.424
315.412     75.534    -1.378
320.000     75.493    -2.262
324.655     75.466    -3.177
329.377     75.445    -4.188
334.168     75.425    -5.295
339.028     75.396    -6.519
343.959     75.347    -7.823
348.962     75.273    -9.092
354.038     75.183   -10.280
359.188     75.081   -11.386
364.412     74.972   -12.369
369.713     74.876   -13.281
375.090     74.784   -14.214
380.546     74.683   -15.124
386.081     74.584   -15.966
391.697     74.485   -16.788
397.394     74.378   -17.620
403.175     74.263   -18.451
409.039     74.129   -19.213
414.989     73.982   -19.786
421.025     73.844   -20.089
427.149     73.740   -20.193
433.362     73.685   -20.292
439.665     73.669   -20.614
446.060     73.658   -21.282
452.548     73.619   -22.170
459.131     73.544   -23.059
465.809     73.442   -23.873
472.584     73.314   -24.474
479.458     73.189   -24.722
486.432     73.099   -24.743
493.507     73.045   -24.664
500.686     73.043   -24.542
507.968     73.105   -24.649
515.357     73.184   -25.232
522.853     73.240   -26.198
530.458     73.269   -27.397
538.174     73.261   -28.717
546.002     73.242   -30.001
553.943     73.236   -31.406
562.001     73.201   -33.094
570.175     73.102   -34.910
578.469     72.922   -36.605
586.883     72.663   -37.802
595.419     72.382   -38.370
604.080     72.140   -38.398
612.866     71.986   -38.100
621.780     71.926   -38.065
630.824     71.894   -38.471
640.000     71.854   -39.010
649.309     71.812   -39.555
658.753     71.784   -39.973
668.335     71.784   -40.284
678.056     71.807   -40.698
687.919     71.843   -41.308
697.925     71.879   -42.170
708.077     71.908   -43.392
718.376     71.902   -45.128
728.825     71.802   -47.029
739.426     71.662   -48.591
750.181     71.523   -50.002
761.093     71.350   -51.410
772.163     71.112   -52.413
783.394     70.849   -52.618
794.789     70.657   -52.110
806.349     70.602   -51.383
818.078     70.670   -50.953
829.977     70.806   -51.021
842.050     70.958   -51.652
854.298     71.099   -52.689
866.724     71.236   -54.080
879.330     71.348   -56.011
892.120     71.378   -58.332
905.097     71.289   -60.710
918.262     71.085   -62.501
931.618     70.836   -63.369
945.169     70.619   -63.530
958.917     70.515   -63.009
972.864     70.588   -62.770
987.015     70.716   -63.672
1001.37     70.786   -65.137
1015.94     70.815   -67.027
1030.71     70.771   -69.218
1045.71     70.674   -71.096
1060.92     70.603   -72.786
1076.35     70.546   -74.721
1092.00     70.442   -77.294
1107.89     70.207   -80.465
1124.00     69.787   -83.698
1140.35     69.161   -86.417
1156.94     68.363   -87.494
1173.77     67.585   -86.323
1190.84     67.034   -83.908
1208.16     66.789   -81.340
1225.73     66.839   -79.701
1243.56     67.003   -80.244
1261.65     67.026   -82.901
1280.00     66.744   -86.434
1298.62     66.123   -89.018
1317.51     65.360   -89.092
1336.67     64.740   -87.361
1356.11     64.376   -85.155
1375.84     64.356   -83.251
1395.85     64.576   -83.410
1416.15     64.748   -86.375
1436.75     64.745   -91.329
1457.65     64.508   -97.634
1478.85     64.053  -104.275
1500.36     63.408  -110.706
1522.19     62.481  -116.275
1544.33     61.394  -119.381
1566.79     60.419  -120.239
1589.58     59.747  -119.964
1612.70     59.539  -119.043
1636.16     59.765  -120.342
1659.95     60.093  -126.534
1684.10     60.125  -135.477
1708.60     59.712  -143.529
1733.45     59.011  -149.167
1758.66     58.272  -151.164
1784.24     57.913  -149.480
1810.19     58.210  -149.246
1836.52     58.783  -153.898
1863.24     59.105  -161.195
1890.34     59.024  -168.823
1917.83     58.661  -174.497
1945.73     58.265  -176.661
1974.03     58.169  -175.993
2002.74     58.528  -174.475
2031.87     59.197  -174.769
2061.43     59.874  -177.643
2091.41     60.377   178.490
2121.83     60.746   174.933
2152.69     61.116   172.069
2184.01     61.530   169.423
2215.77     61.891   166.703
2248.00     62.100   164.889
2280.70     62.148   165.040
2313.87     62.189   167.256
2347.53     62.437   171.205
2381.68     62.909   175.344
2416.32     63.483   177.823
2451.46     64.060   179.009
2487.12     64.609  -179.748
2523.30     65.188  -178.378
2560.00     65.857  -177.480
2597.24     66.577  -177.545
2635.01     67.239  -178.843
2673.34     67.756   179.164
2712.23     68.136   177.254
2751.68     68.410   175.840
2791.70     68.580   175.243
2832.31     68.577   175.339
2873.50     68.329   176.313
2915.30     67.903   178.712
2957.70     67.447  -177.957
3000.72     67.039  -174.115
3044.37     66.755  -169.654
3088.65     66.651  -165.245
3133.58     66.660  -161.285
3179.16     66.793  -157.923
3225.40     66.934  -155.702
3272.31     66.956  -154.149
3319.91     66.793  -152.332
3368.20     66.511  -149.689
3417.19     66.159  -146.422
3466.89     65.729  -142.569
3517.32     65.249  -138.345
3568.48     64.698  -134.009
3620.39     64.053  -129.298
3673.05     63.333  -124.243
3726.47     62.538  -119.036
3780.67     61.643  -113.186
3835.67     60.602  -105.833
3891.46     59.401   -96.281
3948.06     58.116   -83.232
4005.49     57.136   -65.063
4063.75     57.134   -43.037
4122.86     58.331   -21.963
4182.82     60.281    -6.296
4243.66     62.231     2.290
4305.39     63.624     4.893
4368.01     64.272     3.895
4431.55     64.099     2.795
4496.01     63.196     5.490
4561.40     61.937    14.092
4627.75     60.882    28.699
4695.06     60.710    46.413
4763.35     61.662    62.369
4832.64     63.171    73.763
4902.93     64.536    79.429
4974.24     65.271    79.936
5046.60     65.223    79.433
5120.00     64.569    81.677
5194.47     63.485    88.708
5270.03     62.291   100.397
5346.68     61.464   114.956
5424.45     61.286   129.550
5503.35     61.473   141.484
5583.40     61.575   150.351
5664.61     61.362   158.077
5747.01     60.786   167.280
5830.60     60.035   179.499
5915.41     59.485  -165.290
6001.45     59.371  -148.685
6088.74     59.646  -133.090
6177.30     60.039  -119.667
6267.15     60.280  -107.870
6358.31     60.312   -96.450
6450.80     60.218   -84.210
6544.62     60.147   -71.187
6639.82     60.211   -58.352
6736.40     60.309   -46.446
6834.38     60.208   -35.407
6933.79     59.785   -23.249
7034.64     59.045    -7.828
7136.96     58.156    10.693
7240.77     57.407    31.974
7346.09     56.998    54.629
7452.94     56.852    74.900
7561.35     56.335    93.025
7671.33     55.401   112.568
7782.91     54.730   133.508
7896.12     54.843   153.879
8010.97     55.643   172.905
8127.49     56.775  -170.592
8245.71     57.773  -157.347
8365.65     58.232  -145.550
8487.33     58.101  -132.815
8610.78     57.791  -118.446
8736.03     57.460  -102.367
8863.09     57.151   -83.906
8992.01     56.782   -63.033
9122.80     56.133   -38.855
9255.50     55.326    -9.721
9390.12     54.872    20.951
9526.70     55.090    48.501
9665.27     55.806    72.252
9805.86     56.844    91.586
9948.49     57.850   106.583
10093.2     58.266   121.612
10240.0     58.091   141.316
10388.9     57.701   164.211
10540.1     57.118  -172.114
10693.4     56.480  -147.115
10848.9     55.976  -123.539
11006.7     55.215  -102.473
11166.8     54.082   -79.869
11329.2     52.952   -54.667
11494.0     52.071   -27.656
11661.2     52.078     1.724
11830.8     53.258    30.982
12002.9     54.562    57.903
12177.5     55.595    84.007
12354.6     56.223   109.002
12534.3     56.253   133.161
12716.6     55.880   159.068
12901.6     55.338  -173.106
13089.2     54.661  -143.633
13279.6     54.119  -112.739
13472.8     53.874   -81.301
13668.8     53.874   -49.926
13867.6     54.005   -19.581
14069.3     54.065     9.698
14273.9     53.842    38.918
14481.5     53.345    69.713
14692.2     52.891   102.786
14905.9     52.631   136.072
15122.7     52.298   168.698
15342.7     51.834  -157.896
15565.8     51.635  -123.816
15792.2     51.834   -90.019
16021.9     52.306   -56.587
16255.0     52.670   -23.882
16491.4     52.538     8.473
16731.3     51.844    40.564
16974.7     50.420    72.416
17221.6     48.048   106.899
17472.1     45.058   146.248
17726.2     42.516  -167.627
17984.0     42.299  -115.076
18245.6     43.915   -63.135
18511.0     45.731   -14.303
18780.2     47.127    31.609
19053.4     47.757    73.341
19330.5     47.751   113.640
19611.7     47.404   155.453
19897.0     46.834  -160.216
20186.4     46.448  -111.824
20480.0     46.523   -60.732
20777.9     46.835   -10.279
21080.1     47.060    39.181
21386.7     47.274    88.653
21697.8     47.516   137.900
22013.4     47.645  -173.071
22333.6     47.701  -123.446
22658.4     47.590   -73.704
22988.0     47.148   -24.869
23322.4     46.551    22.668
23661.6     45.953    68.632
24005.8     45.248   113.989
24355.0     44.587   161.093
24709.2     44.112  -147.667
25068.6     43.705   -90.973
25433.2     43.388   -28.825
25803.2     43.293    38.030
26178.5     43.179   107.587
26559.3     42.767   176.717
26945.6     42.153  -117.748
27337.5     41.459   -64.728
27735.2     40.678   -23.101
28138.6     40.190    -6.116
28547.9     40.229    -1.141
28963.1     40.633     9.022
29384.4     41.201    20.647
29811.8     41.777    47.015
30245.4     42.202    92.338
30685.3     42.358   141.135
31131.7     42.168  -161.894
31584.5     41.755  -100.669
32043.9     41.303   -32.214
32510.0     40.993    43.390
32982.8     41.182   121.635
33462.6     42.063  -162.747
33949.3     43.117   -92.698
34443.1     43.852   -29.336
34944.1     44.005    28.937
35452.4     43.396    87.063
35968.0     42.187   149.647
36491.2     41.020  -142.018
37022.0     40.709   -69.458
37560.5     41.496    -2.571
38106.8     42.657    54.956
38661.1     43.836    87.548
39223.4     44.677   103.785
