Freq[Hz]     dBSPL  Phase[Deg]
Freq[Hz]     dBSPL  Phase[Deg]
5.00000    -11.370   -11.200
5.07273    -11.015   -11.290
5.14651    -10.629   -11.389
5.22137    -10.198   -11.498
5.29732     -9.748   -11.612
5.37437     -9.278   -11.733
5.45254     -8.808   -11.855
5.53185     -8.337   -11.979
5.61231     -7.867   -12.105
5.69394     -7.397   -12.232
5.77676     -6.926   -12.362
5.86079     -6.456   -12.493
5.94604     -5.986   -12.627
6.03252     -5.515   -12.762
6.12027     -5.045   -12.899
6.20929     -4.575   -13.038
6.29961     -4.104   -13.180
6.39124     -3.634   -13.323
6.48420     -3.163   -13.468
6.57851     -2.693   -13.616
6.67420     -2.222   -13.766
6.77128     -1.752   -13.917
6.86977     -1.281   -14.072
6.96969     -0.811   -14.228
7.07107     -0.340   -14.386
7.17392      0.130   -14.547
7.27827      0.601   -14.711
7.38413      1.072   -14.876
7.49154      1.542   -15.044
7.60050      2.013   -15.215
7.71105      2.484   -15.388
7.82321      2.955   -15.563
7.93701      3.425   -15.741
8.05245      3.896   -15.922
8.16958      4.367   -16.105
8.28841      4.838   -16.291
8.40896      5.309   -16.480
8.53128      5.780   -16.671
8.65537      6.251   -16.866
8.78126      6.722   -17.063
8.90899      7.193   -17.263
9.03857      7.664   -17.466
9.17004      8.135   -17.671
9.30342      8.606   -17.880
9.43874      9.077   -18.092
9.57603      9.548   -18.307
9.71532     10.020   -18.525
9.85663     10.491   -18.747
10.0000     10.962   -18.971
10.1455     11.434   -19.199
10.2930     11.905   -19.431
10.4427     12.377   -19.665
10.5946     12.848   -19.903
10.7487     13.320   -20.145
10.9051     13.791   -20.390
11.0637     14.263   -20.639
11.2246     14.735   -20.891
11.3879     15.207   -21.147
11.5535     15.679   -21.407
11.7216     16.151   -21.671
11.8921     16.623   -21.938
12.0650     17.095   -22.210
12.2405     17.567   -22.485
12.4186     18.039   -22.765
12.5992     18.512   -23.049
12.7825     18.984   -23.337
12.9684     19.456   -23.629
13.1570     19.929   -23.925
13.3484     20.402   -24.226
13.5426     20.875   -24.532
13.7395     21.347   -24.842
13.9394     21.820   -25.156
14.1421     22.293   -25.475
14.3478     22.767   -25.799
14.5565     23.240   -26.128
14.7683     23.713   -26.462
14.9831     24.187   -26.801
15.2010     24.660   -27.144
15.4221     25.134   -27.493
15.6464     25.608   -27.847
15.8740     26.082   -28.207
16.1049     26.556   -28.572
16.3392     27.031   -28.942
16.5768     27.505   -29.318
16.8179     27.980   -29.700
17.0626     28.455   -30.087
17.3107     28.930   -30.480
17.5625     29.405   -30.879
17.8180     29.880   -31.285
18.0771     30.355   -31.696
18.3401     30.831   -32.114
18.6068     31.307   -32.538
18.8775     31.783   -32.969
19.1521     32.260   -33.407
19.4306     32.736   -33.851
19.7133     33.211   -34.316
20.0000     33.682   -34.820
20.2909     34.143   -35.364
20.5860     34.590   -35.911
20.8855     35.026   -36.324
21.1893     35.454   -36.547
21.4975     35.884   -36.678
21.8102     36.327   -36.815
22.1274     36.786   -37.030
22.4492     37.262   -37.340
22.7758     37.751   -37.704
23.1071     38.250   -38.143
23.4432     38.754   -38.643
23.7841     39.258   -39.281
24.1301     39.761   -40.183
24.4811     40.258   -41.237
24.8372     40.746   -42.261
25.1984     41.226   -43.171
25.5649     41.699   -43.912
25.9368     42.169   -44.572
26.3141     42.639   -45.263
26.6968     43.112   -46.043
27.0851     43.587   -46.945
27.4791     44.065   -47.936
27.8788     44.544   -48.939
28.2843     45.023   -49.881
28.6957     45.501   -50.775
29.1131     45.979   -51.681
29.5365     46.456   -52.627
29.9661     46.931   -53.656
30.4020     47.406   -54.699
30.8442     47.881   -55.728
31.2929     48.355   -56.784
31.7480     48.828   -57.893
32.2098     49.297   -59.112
32.6783     49.761   -60.426
33.1536     50.223   -61.574
33.6359     50.688   -62.401
34.1251     51.165   -62.872
34.6215     51.663   -63.350
35.1250     52.182   -64.117
35.6359     52.715   -65.273
36.1543     53.251   -66.618
36.6802     53.782   -68.011
37.2137     54.306   -69.346
37.7550     54.824   -70.626
38.3041     55.341   -71.993
38.8613     55.859   -73.635
39.4265     56.377   -75.353
40.0000     56.893   -76.973
40.5818     57.409   -78.393
41.1721     57.927   -79.771
41.7710     58.446   -81.281
42.3785     58.964   -83.046
42.9949     59.477   -85.053
43.6203     59.982   -87.203
44.2548     60.477   -89.358
44.8985     60.963   -91.384
45.5515     61.445   -93.228
46.2141     61.926   -94.950
46.8863     62.410   -96.653
47.5683     62.899   -98.421
48.2602     63.395  -100.311
48.9621     63.895  -102.322
49.6743     64.398  -104.424
50.3968     64.902  -106.598
51.1299     65.405  -108.824
51.8736     65.907  -111.094
52.6281     66.406  -113.417
53.3936     66.901  -115.814
54.1702     67.391  -118.296
54.9581     67.874  -120.852
55.7575     68.351  -123.482
56.5685     68.822  -126.191
57.3914     69.287  -128.954
58.2261     69.745  -131.760
59.0730     70.196  -134.632
59.9323     70.636  -137.592
60.8040     71.065  -140.639
61.6884     71.483  -143.757
62.5857     71.890  -146.942
63.4960     72.284  -150.191
64.4196     72.663  -153.490
65.3566     73.022  -156.832
66.3073     73.366  -160.216
67.2717     73.695  -163.632
68.2502     74.013  -167.069
69.2429     74.322  -170.540
70.2501     74.617  -174.062
71.2719     74.890  -177.635
72.3086     75.137   178.781
73.3603     75.359   175.238
74.4274     75.561   171.759
75.5099     75.746   168.349
76.6083     75.919   164.989
77.7226     76.080   161.654
78.8531     76.227   158.347
80.0000     76.359   155.073
81.1636     76.478   151.854
82.3442     76.585   148.711
83.5419     76.679   145.634
84.7570     76.762   142.620
85.9899     76.834   139.680
87.2406     76.896   136.819
88.5096     76.951   134.039
89.7970     76.999   131.337
91.1031     77.045   128.703
92.4282     77.089   126.120
93.7726     77.131   123.592
95.1366     77.167   121.116
96.5204     77.200   118.681
97.9243     77.227   116.288
99.3486     77.249   113.945
100.794     77.265   111.657
102.260     77.278   109.429
103.747     77.288   107.271
105.256     77.300   105.179
106.787     77.315   103.116
108.340     77.330   101.052
109.916     77.340    99.000
111.515     77.342    96.978
113.137     77.337    95.006
114.783     77.328    93.107
116.452     77.320    91.274
118.146     77.314    89.473
119.865     77.308    87.689
121.608     77.299    85.924
123.377     77.284    84.198
125.171     77.266    82.536
126.992     77.247    80.936
128.839     77.230    79.388
130.713     77.217    77.882
132.615     77.208    76.397
134.543     77.200    74.921
136.500     77.192    73.463
138.486     77.185    72.024
140.500     77.179    70.599
142.544     77.174    69.186
144.617     77.169    67.784
146.721     77.164    66.388
148.855     77.157    65.001
151.020     77.147    63.625
153.217     77.134    62.269
155.445     77.118    60.938
157.706     77.099    59.630
160.000     77.076    58.351
162.327     77.049    57.127
164.688     77.022    55.972
167.084     76.999    54.880
169.514     76.987    53.832
171.980     76.984    52.786
174.481     76.986    51.707
177.019     76.987    50.592
179.594     76.983    49.454
182.206     76.971    48.329
184.856     76.957    47.244
187.545     76.943    46.196
190.273     76.930    45.176
193.041     76.919    44.181
195.849     76.911    43.198
198.697     76.903    42.220
201.587     76.896    41.235
204.520     76.883    40.245
207.494     76.863    39.292
210.512     76.839    38.424
213.574     76.821    37.664
216.681     76.818    36.979
219.833     76.837    36.279
223.030     76.870    35.472
226.274     76.903    34.504
229.565     76.921    33.423
232.905     76.919    32.340
236.292     76.905    31.325
239.729     76.887    30.411
243.216     76.872    29.591
246.754     76.866    28.816
250.343     76.867    28.051
253.984     76.873    27.301
257.678     76.890    26.567
261.426     76.922    25.756
265.229     76.953    24.791
269.087     76.966    23.720
273.001     76.958    22.618
276.972     76.929    21.590
281.000     76.894    20.754
285.088     76.880    20.075
289.234     76.894    19.389
293.441     76.925    18.548
297.709     76.952    17.528
302.040     76.956    16.409
306.433     76.939    15.309
310.890     76.906    14.308
315.412     76.868    13.430
320.000     76.837    12.632
324.655     76.813    11.835
329.377     76.790    11.012
334.168     76.768    10.163
339.028     76.739     9.309
343.959     76.699     8.524
348.962     76.664     7.849
354.038     76.640     7.230
359.188     76.623     6.624
364.412     76.619     6.014
369.713     76.625     5.310
375.090     76.628     4.493
380.546     76.619     3.635
386.081     76.600     2.765
391.697     76.571     1.909
397.394     76.525     1.066
403.175     76.455     0.343
409.039     76.382    -0.110
414.989     76.334    -0.341
421.025     76.327    -0.461
427.149     76.368    -0.605
433.362     76.450    -0.988
439.665     76.536    -1.737
446.060     76.598    -2.787
452.548     76.624    -3.981
459.131     76.609    -5.185
465.809     76.563    -6.252
472.584     76.509    -7.139
479.458     76.456    -7.932
486.432     76.400    -8.655
493.507     76.341    -9.261
500.686     76.289    -9.696
507.968     76.259    -9.988
515.357     76.252   -10.182
522.853     76.283   -10.315
530.458     76.361   -10.554
538.174     76.473   -11.064
546.002     76.604   -11.926
553.943     76.728   -13.169
562.001     76.817   -14.659
570.175     76.862   -16.256
578.469     76.854   -17.837
586.883     76.805   -19.211
595.419     76.745   -20.326
604.080     76.687   -21.340
612.866     76.637   -22.311
621.780     76.596   -23.202
630.824     76.555   -24.086
640.000     76.517   -24.944
649.309     76.496   -25.794
658.753     76.488   -26.833
668.335     76.474   -28.083
678.056     76.446   -29.483
687.919     76.394   -30.904
697.925     76.331   -32.167
708.077     76.285   -33.462
718.376     76.208   -35.104
728.825     76.022   -36.653
739.426     75.809   -37.534
750.181     75.653   -38.077
761.093     75.532   -38.695
772.163     75.424   -39.302
783.394     75.337   -39.847
794.789     75.268   -40.434
806.349     75.218   -41.087
818.078     75.173   -41.908
829.977     75.102   -42.883
842.050     75.004   -43.904
854.298     74.882   -45.020
866.724     74.709   -46.177
879.330     74.482   -47.098
892.120     74.240   -47.564
905.097     74.005   -47.468
918.262     73.815   -46.830
931.618     73.718   -45.926
945.169     73.704   -45.140
958.917     73.754   -44.805
972.864     73.806   -44.973
987.015     73.828   -45.216
1001.37     73.882   -45.318
1015.94     73.975   -45.527
1030.71     74.097   -45.978
1045.71     74.250   -46.838
1060.92     74.373   -48.419
1076.35     74.382   -50.583
1092.00     74.257   -52.640
1107.89     74.059   -54.110
1124.00     73.856   -54.978
1140.35     73.693   -55.257
1156.94     73.617   -55.204
1173.77     73.611   -55.384
1190.84     73.595   -55.923
1208.16     73.542   -56.565
1225.73     73.483   -57.189
1243.56     73.438   -57.765
1261.65     73.418   -58.376
1280.00     73.438   -59.104
1298.62     73.476   -59.968
1317.51     73.499   -61.140
1336.67     73.477   -62.494
1356.11     73.406   -63.716
1375.84     73.313   -64.881
1395.85     73.193   -66.017
1416.15     73.055   -67.007
1436.75     72.934   -67.911
1457.65     72.813   -68.821
1478.85     72.656   -69.741
1500.36     72.469   -70.458
1522.19     72.271   -70.851
1544.33     72.055   -71.111
1566.79     71.823   -71.203
1589.58     71.589   -70.813
1612.70     71.383   -69.657
1636.16     71.296   -67.878
1659.95     71.362   -66.178
1684.10     71.493   -64.919
1708.60     71.637   -64.089
1733.45     71.803   -63.548
1758.66     71.992   -63.115
1784.24     72.190   -62.820
1810.19     72.402   -62.574
1836.52     72.640   -62.218
1863.24     72.904   -61.852
1890.34     73.205   -61.628
1917.83     73.570   -61.601
1945.73     73.994   -61.898
1974.03     74.456   -62.779
2002.74     74.932   -64.336
2031.87     75.390   -66.499
2061.43     75.811   -69.224
2091.41     76.185   -72.417
2121.83     76.499   -75.900
2152.69     76.773   -79.500
2184.01     77.007   -83.201
2215.77     77.177   -86.982
2248.00     77.302   -90.649
2280.70     77.415   -94.180
2313.87     77.531   -97.768
2347.53     77.659  -101.515
2381.68     77.786  -105.528
2416.32     77.881  -109.921
2451.46     77.899  -114.508
2487.12     77.821  -118.970
2523.30     77.670  -123.117
2560.00     77.466  -126.845
2597.24     77.241  -130.144
2635.01     77.026  -133.074
2673.34     76.842  -135.685
2712.23     76.717  -138.089
2751.68     76.662  -140.502
2791.70     76.664  -143.109
2832.31     76.713  -146.033
2873.50     76.796  -149.326
2915.30     76.887  -152.907
2957.70     76.980  -156.730
3000.72     77.072  -160.873
3044.37     77.141  -165.404
3088.65     77.167  -170.331
3133.58     77.144  -175.362
3179.16     77.159   179.344
3225.40     77.119   173.422
3272.31     76.993   167.477
3319.91     76.808   161.769
3368.20     76.601   156.376
3417.19     76.403   151.152
3466.89     76.222   145.901
3517.32     76.057   140.489
3568.48     75.887   134.884
3620.39     75.702   129.173
3673.05     75.504   123.388
3726.47     75.294   117.502
3780.67     75.087   111.503
3835.67     74.896   105.352
3891.46     74.729    99.010
3948.06     74.584    92.473
4005.49     74.460    85.778
4063.75     74.363    78.935
4122.86     74.299    71.878
4182.82     74.273    64.471
4243.66     74.271    56.575
4305.39     74.275    48.190
4368.01     74.279    39.350
4431.55     74.264    30.056
4496.01     74.208    20.514
4561.40     74.128    10.972
4627.75     74.041     1.470
4695.06     73.945    -7.999
4763.35     73.849   -17.336
4832.64     73.799   -26.506
4902.93     73.833   -35.960
4974.24     73.818   -46.148
5046.60     73.720   -55.469
5120.00     73.759   -64.106
5194.47     73.925   -73.071
5270.03     74.137   -82.668
5346.68     74.333   -92.911
5424.45     74.467  -103.707
5503.35     74.504  -114.765
5583.40     74.452  -125.787
5664.61     74.330  -136.666
5747.01     74.137  -147.318
5830.60     73.881  -157.536
5915.41     73.583  -167.152
6001.45     73.276  -176.145
6088.74     72.994   175.383
6177.30     72.770   167.212
6267.15     72.613   159.049
6358.31     72.505   150.690
6450.80     72.418   142.047
6544.62     72.314   133.133
6639.82     72.157   124.171
6736.40     71.947   115.538
6834.38     71.735   107.475
6933.79     71.592    99.898
7034.64     71.567    92.459
7136.96     71.688    84.665
7240.77     71.919    76.069
7346.09     72.179    66.465
7452.94     72.412    55.973
7561.35     72.592    44.817
7671.33     72.681    33.142
7782.91     72.663    21.314
7896.12     72.560     9.667
8010.97     72.399    -1.787
8127.49     72.206   -12.877
8245.71     72.043   -23.562
8365.65     71.956   -34.215
8487.33     71.933   -45.050
8610.78     71.950   -56.110
8736.03     71.995   -67.410
8863.09     72.076   -78.853
8992.01     72.227   -90.495
9122.80     72.456  -102.608
9255.50     72.738  -115.372
9390.12     73.047  -128.964
9526.70     73.319  -143.555
9665.27     73.474  -158.928
9805.86     73.490  -174.600
9948.49     73.388   169.799
10093.2     73.201   154.520
10240.0     72.987   139.651
10388.9     72.813   125.039
10540.1     72.703   110.416
10693.4     72.654    95.476
10848.9     72.631    80.039
11006.7     72.589    64.197
11166.8     72.519    48.124
11329.2     72.433    31.935
11494.0     72.346    15.686
11661.2     72.287    -0.690
11830.8     72.261   -17.373
12002.9     72.250   -34.506
12177.5     72.240   -52.126
12354.6     72.216   -70.268
12534.3     72.153   -88.957
12716.6     72.027  -108.148
12901.6     71.814  -127.690
13089.2     71.493  -147.233
13279.6     71.086  -166.436
13472.8     70.635   174.906
13668.8     70.210   156.837
13867.6     69.874   138.991
14069.3     69.629   120.971
14273.9     69.469   102.484
14481.5     69.350    83.314
14692.2     69.226    63.599
14905.9     69.091    43.440
15122.7     68.937    22.934
15342.7     68.773     2.202
15565.8     68.621   -18.898
15792.2     68.488   -40.462
16021.9     68.368   -62.569
16255.0     68.229   -85.223
16491.4     68.041  -108.245
16731.3     67.790  -131.420
16974.7     67.485  -154.551
17221.6     67.161  -177.632
17472.1     66.846   159.224
17726.2     66.551   135.835
17984.0     66.263   112.013
18245.6     65.945    87.706
18511.0     65.577    62.964
18780.2     65.161    37.911
19053.4     64.705    12.682
19330.5     64.226   -12.551
19611.7     63.748   -37.620
19897.0     63.299   -62.420
20186.4     62.908   -86.997
20480.0     62.600  -111.502
20777.9     62.400  -136.038
21080.1     62.308  -160.906
21386.7     62.312   173.518
21697.8     62.398   147.146
22013.4     62.543   119.966
22333.6     62.721    91.888
22658.4     62.903    62.921
22988.0     63.062    33.165
23322.4     63.185     2.657
23661.6     63.272   -28.625
24005.8     63.328   -60.661
24355.0     63.356   -93.380
24709.2     63.342  -126.690
25068.6     63.261  -160.508
25433.2     63.099   165.256
25803.2     62.846   130.823
26178.5     62.525    96.467
26559.3     62.193    62.299
26945.6     61.913    28.237
27337.5     61.721    -5.894
27735.2     61.625   -40.296
28138.6     61.632   -75.197
28547.9     61.737  -110.860
28963.1     61.909  -147.450
29384.4     62.128   174.886
29811.8     62.366   135.849
30245.4     62.558    95.239
30685.3     62.638    53.237
31131.7     62.573    10.331
31584.5     62.358   -32.783
32043.9     62.048   -75.309
32510.0     61.764  -116.812
32982.8     61.642  -157.565
33462.6     61.782   161.738
33949.3     62.218   120.155
34443.1     62.868    76.723
34944.1     63.596    30.990
35452.4     64.305   -17.030
35968.0     64.934   -67.155
36491.2     65.445  -119.047
37022.0     65.836  -172.359
37560.5     66.119   133.132
38106.8     66.301    83.707
38661.1     66.391    38.884
39223.4     66.432     6.943
