Freq[Hz]     dBSPL  Phase[Deg]
Freq[Hz]     dBSPL  Phase[Deg]
5.00000    -11.410   -12.339
5.07273    -11.055   -12.428
5.14651    -10.669   -12.524
5.22137    -10.237   -12.630
5.29732     -9.787   -12.741
5.37437     -9.317   -12.858
5.45254     -8.846   -12.976
5.53185     -8.375   -13.096
5.61231     -7.904   -13.218
5.69394     -7.434   -13.342
5.77676     -6.963   -13.468
5.86079     -6.492   -13.595
5.94604     -6.021   -13.725
6.03252     -5.551   -13.856
6.12027     -5.080   -13.989
6.20929     -4.609   -14.124
6.29961     -4.138   -14.261
6.39124     -3.667   -14.400
6.48420     -3.196   -14.541
6.57851     -2.726   -14.684
6.67420     -2.255   -14.829
6.77128     -1.784   -14.976
6.86977     -1.313   -15.125
6.96969     -0.842   -15.277
7.07107     -0.371   -15.431
7.17392      0.100   -15.587
7.27827      0.571   -15.745
7.38413      1.042   -15.906
7.49154      1.513   -16.069
7.60050      1.984   -16.234
7.71105      2.456   -16.402
7.82321      2.927   -16.572
7.93701      3.398   -16.745
8.05245      3.869   -16.920
8.16958      4.340   -17.098
8.28841      4.812   -17.278
8.40896      5.283   -17.461
8.53128      5.754   -17.647
8.65537      6.226   -17.835
8.78126      6.697   -18.026
8.90899      7.169   -18.220
9.03857      7.640   -18.417
9.17004      8.112   -18.616
9.30342      8.583   -18.819
9.43874      9.055   -19.024
9.57603      9.526   -19.233
9.71532      9.998   -19.445
9.85663     10.470   -19.659
10.0000     10.942   -19.877
10.1455     11.413   -20.098
10.2930     11.885   -20.323
10.4427     12.357   -20.550
10.5946     12.829   -20.781
10.7487     13.301   -21.015
10.9051     13.773   -21.253
11.0637     14.245   -21.494
11.2246     14.718   -21.739
11.3879     15.190   -21.988
11.5535     15.662   -22.240
11.7216     16.135   -22.496
11.8921     16.607   -22.755
12.0650     17.079   -23.019
12.2405     17.552   -23.286
12.4186     18.025   -23.557
12.5992     18.498   -23.832
12.7825     18.970   -24.112
12.9684     19.443   -24.395
13.1570     19.916   -24.683
13.3484     20.389   -24.975
13.5426     20.863   -25.271
13.7395     21.336   -25.572
13.9394     21.809   -25.877
14.1421     22.283   -26.186
14.3478     22.756   -26.501
14.5565     23.230   -26.820
14.7683     23.704   -27.143
14.9831     24.178   -27.472
15.2010     24.652   -27.806
15.4221     25.126   -28.144
15.6464     25.600   -28.488
15.8740     26.075   -28.836
16.1049     26.549   -29.190
16.3392     27.024   -29.550
16.5768     27.499   -29.914
16.8179     27.974   -30.285
17.0626     28.449   -30.661
17.3107     28.925   -31.042
17.5625     29.400   -31.430
17.8180     29.876   -31.823
18.0771     30.352   -32.222
18.3401     30.828   -32.628
18.6068     31.304   -33.039
18.8775     31.781   -33.457
19.1521     32.258   -33.882
19.4306     32.735   -34.313
19.7133     33.209   -34.772
20.0000     33.679   -35.286
20.2909     34.137   -35.863
20.5860     34.577   -36.459
20.8855     35.003   -36.884
21.1893     35.419   -37.048
21.4975     35.836   -37.062
21.8102     36.268   -37.042
22.1274     36.723   -37.105
22.4492     37.203   -37.323
22.7758     37.705   -37.675
23.1071     38.219   -38.167
23.4432     38.737   -38.756
23.7841     39.249   -39.486
24.1301     39.750   -40.465
24.4811     40.239   -41.567
24.8372     40.717   -42.594
25.1984     41.189   -43.475
25.5649     41.661   -44.175
25.9368     42.133   -44.800
26.3141     42.607   -45.480
26.6968     43.083   -46.270
27.0851     43.558   -47.201
27.4791     44.032   -48.220
27.8788     44.506   -49.239
28.2843     44.980   -50.177
28.6957     45.456   -51.047
29.1131     45.934   -51.919
29.5365     46.414   -52.844
29.9661     46.895   -53.873
30.4020     47.375   -54.950
30.8442     47.850   -56.035
31.2929     48.318   -57.147
31.7480     48.778   -58.274
32.2098     49.233   -59.450
32.6783     49.691   -60.666
33.1536     50.159   -61.710
33.6359     50.642   -62.488
34.1251     51.138   -63.013
34.6215     51.645   -63.608
35.1250     52.160   -64.484
35.6359     52.678   -65.674
36.1543     53.204   -66.981
36.6802     53.735   -68.317
37.2137     54.265   -69.635
37.7550     54.791   -70.961
38.3041     55.309   -72.412
38.8613     55.819   -74.107
39.4265     56.327   -75.823
40.0000     56.839   -77.399
40.5818     57.356   -78.781
41.1721     57.876   -80.154
41.7710     58.396   -81.683
42.3785     58.912   -83.470
42.9949     59.420   -85.484
43.6203     59.922   -87.616
44.2548     60.416   -89.742
44.8985     60.905   -91.748
45.5515     61.390   -93.585
46.2141     61.875   -95.315
46.8863     62.362   -97.038
47.5683     62.852   -98.828
48.2602     63.348  -100.735
48.9621     63.847  -102.762
49.6743     64.349  -104.878
50.3968     64.853  -107.069
51.1299     65.356  -109.316
51.8736     65.856  -111.607
52.6281     66.353  -113.947
53.3936     66.844  -116.350
54.1702     67.332  -118.828
54.9581     67.814  -121.378
55.7575     68.291  -124.002
56.5685     68.763  -126.713
57.3914     69.230  -129.489
58.2261     69.689  -132.314
59.0730     70.140  -135.207
59.9323     70.581  -138.187
60.8040     71.009  -141.252
61.6884     71.425  -144.384
62.5857     71.829  -147.578
63.4960     72.222  -150.833
64.4196     72.598  -154.138
65.3566     72.957  -157.485
66.3073     73.298  -160.877
67.2717     73.625  -164.301
68.2502     73.940  -167.742
69.2429     74.246  -171.210
70.2501     74.539  -174.724
71.2719     74.811  -178.286
72.3086     75.059   178.137
73.3603     75.284   174.598
74.4274     75.487   171.117
75.5099     75.674   167.702
76.6083     75.847   164.336
77.7226     76.008   160.997
78.8531     76.155   157.689
80.0000     76.287   154.420
81.1636     76.407   151.215
82.3442     76.517   148.092
83.5419     76.617   145.024
84.7570     76.708   141.997
85.9899     76.786   139.019
87.2406     76.853   136.101
88.5096     76.909   133.257
89.7970     76.957   130.497
91.1031     77.001   127.815
92.4282     77.043   125.192
93.7726     77.081   122.626
95.1366     77.114   120.115
96.5204     77.143   117.652
97.9243     77.166   115.239
99.3486     77.185   112.886
100.794     77.201   110.587
102.260     77.213   108.341
103.747     77.223   106.152
105.256     77.233   104.016
106.787     77.242   101.910
108.340     77.250    99.818
109.916     77.252    97.755
111.515     77.249    95.733
113.137     77.239    93.771
114.783     77.227    91.889
116.452     77.219    90.067
118.146     77.214    88.265
119.865     77.209    86.470
121.608     77.201    84.685
123.377     77.186    82.930
125.171     77.166    81.243
126.992     77.145    79.627
128.839     77.126    78.067
130.713     77.112    76.547
132.615     77.101    75.038
134.543     77.092    73.533
136.500     77.082    72.044
138.486     77.072    70.569
140.500     77.062    69.108
142.544     77.050    67.674
144.617     77.039    66.271
146.721     77.030    64.888
148.855     77.023    63.513
151.020     77.016    62.134
153.217     77.007    60.743
155.445     76.993    59.348
157.706     76.972    57.968
160.000     76.942    56.633
162.327     76.908    55.376
164.688     76.877    54.191
167.084     76.852    53.051
169.514     76.834    51.931
171.980     76.821    50.810
174.481     76.809    49.674
177.019     76.794    48.541
179.594     76.778    47.430
182.206     76.761    46.351
184.856     76.747    45.295
187.545     76.737    44.240
190.273     76.728    43.171
193.041     76.716    42.098
195.849     76.700    41.034
198.697     76.682    39.990
201.587     76.661    38.968
204.520     76.637    37.966
207.494     76.610    37.005
210.512     76.582    36.107
213.574     76.558    35.287
216.681     76.543    34.538
219.833     76.543    33.823
223.030     76.560    33.062
226.274     76.585    32.166
229.565     76.602    31.151
232.905     76.609    30.091
236.292     76.607    29.018
239.729     76.596    27.963
243.216     76.577    26.949
246.754     76.555    25.974
250.343     76.526    25.032
253.984     76.491    24.166
257.678     76.460    23.444
261.426     76.449    22.784
265.229     76.457    22.055
269.087     76.472    21.188
273.001     76.478    20.162
276.972     76.458    19.084
281.000     76.419    18.118
285.088     76.384    17.301
289.234     76.363    16.553
293.441     76.359    15.737
297.709     76.356    14.775
302.040     76.332    13.729
306.433     76.283    12.750
310.890     76.223    11.961
315.412     76.174    11.361
320.000     76.156    10.825
324.655     76.164    10.182
329.377     76.180     9.333
334.168     76.184     8.282
339.028     76.157     7.126
343.959     76.091     6.052
348.962     76.008     5.212
354.038     75.935     4.559
359.188     75.873     4.000
364.412     75.832     3.503
369.713     75.816     2.918
375.090     75.799     2.159
380.546     75.765     1.349
386.081     75.722     0.562
391.697     75.671    -0.218
397.394     75.603    -1.015
403.175     75.510    -1.748
409.039     75.400    -2.274
414.989     75.292    -2.541
421.025     75.211    -2.541
427.149     75.180    -2.388
433.362     75.204    -2.338
439.665     75.257    -2.607
446.060     75.306    -3.260
452.548     75.314    -4.163
459.131     75.272    -5.064
465.809     75.194    -5.733
472.584     75.113    -6.031
479.458     75.076    -6.041
486.432     75.098    -6.047
493.507     75.155    -6.268
500.686     75.223    -6.759
507.968     75.277    -7.545
515.357     75.283    -8.491
522.853     75.244    -9.318
530.458     75.193    -9.911
538.174     75.149   -10.287
546.002     75.137   -10.536
553.943     75.154   -10.867
562.001     75.170   -11.263
570.175     75.196   -11.660
578.469     75.224   -12.167
586.883     75.242   -12.658
595.419     75.275   -13.076
604.080     75.330   -13.639
612.866     75.391   -14.402
621.780     75.436   -15.353
630.824     75.449   -16.439
640.000     75.432   -17.459
649.309     75.404   -18.367
658.753     75.365   -19.295
668.335     75.307   -20.134
678.056     75.250   -20.726
687.919     75.212   -21.122
697.925     75.212   -21.316
708.077     75.295   -21.589
718.376     75.394   -22.541
728.825     75.397   -23.860
739.426     75.350   -24.861
750.181     75.313   -25.640
761.093     75.286   -26.408
772.163     75.256   -27.049
783.394     75.234   -27.484
794.789     75.240   -27.880
806.349     75.274   -28.325
818.078     75.335   -28.944
829.977     75.401   -29.873
842.050     75.449   -30.926
854.298     75.488   -31.973
866.724     75.515   -33.125
879.330     75.521   -34.311
892.120     75.525   -35.380
905.097     75.541   -36.450
918.262     75.557   -37.609
931.618     75.571   -38.796
945.169     75.587   -40.014
958.917     75.602   -41.275
972.864     75.631   -42.702
987.015     75.667   -44.437
1001.37     75.682   -46.442
1015.94     75.661   -48.695
1030.71     75.566   -51.016
1045.71     75.378   -53.004
1060.92     75.144   -54.589
1076.35     74.887   -55.844
1092.00     74.617   -56.688
1107.89     74.360   -57.173
1124.00     74.134   -57.294
1140.35     73.950   -56.946
1156.94     73.836   -56.253
1173.77     73.845   -55.491
1190.84     73.975   -55.098
1208.16     74.158   -55.312
1225.73     74.361   -56.109
1243.56     74.542   -57.508
1261.65     74.657   -59.202
1280.00     74.724   -60.910
1298.62     74.759   -62.618
1317.51     74.795   -64.207
1336.67     74.867   -65.940
1356.11     74.917   -68.093
1375.84     74.913   -70.395
1395.85     74.853   -72.634
1416.15     74.735   -74.685
1436.75     74.604   -76.444
1457.65     74.489   -77.992
1478.85     74.391   -79.520
1500.36     74.294   -81.087
1522.19     74.171   -82.455
1544.33     74.054   -83.546
1566.79     73.993   -84.527
1589.58     73.971   -85.448
1612.70     73.988   -86.375
1636.16     74.075   -87.461
1659.95     74.211   -88.871
1684.10     74.347   -90.757
1708.60     74.472   -93.144
1733.45     74.568   -95.865
1758.66     74.611   -98.827
1784.24     74.585  -101.960
1810.19     74.477  -104.939
1836.52     74.308  -107.527
1863.24     74.105  -109.730
1890.34     73.915  -111.487
1917.83     73.806  -112.856
1945.73     73.787  -114.151
1974.03     73.851  -115.630
2002.74     73.981  -117.495
2031.87     74.106  -120.024
2061.43     74.177  -123.314
2091.41     74.157  -127.144
2121.83     74.015  -131.064
2152.69     73.782  -134.646
2184.01     73.496  -137.708
2215.77     73.169  -140.202
2248.00     72.832  -142.020
2280.70     72.545  -143.156
2313.87     72.366  -143.927
2347.53     72.309  -144.711
2381.68     72.343  -145.663
2416.32     72.446  -146.968
2451.46     72.561  -148.820
2487.12     72.606  -151.007
2523.30     72.596  -153.167
2560.00     72.589  -155.228
2597.24     72.595  -157.288
2635.01     72.621  -159.398
2673.34     72.671  -161.550
2712.23     72.729  -163.845
2751.68     72.761  -166.337
2791.70     72.753  -168.848
2832.31     72.705  -171.262
2873.50     72.618  -173.465
2915.30     72.513  -175.331
2957.70     72.411  -176.877
3000.72     72.336  -178.114
3044.37     72.309  -179.279
3088.65     72.293   179.469
3133.58     72.298   178.503
3179.16     72.409   177.175
3225.40     72.471   175.200
3272.31     72.494   173.403
3319.91     72.528   171.875
3368.20     72.574   170.620
3417.19     72.663   169.552
3466.89     72.805   168.364
3517.32     72.976   166.903
3568.48     73.155   164.976
3620.39     73.294   162.535
3673.05     73.358   159.858
3726.47     73.331   157.203
3780.67     73.221   154.920
3835.67     73.088   153.288
3891.46     72.995   152.207
3948.06     72.976   151.311
4005.49     73.019   150.178
4063.75     73.062   148.622
4122.86     73.041   146.817
4182.82     72.943   145.166
4243.66     72.800   144.014
4305.39     72.664   143.439
4368.01     72.590   143.269
4431.55     72.589   143.168
4496.01     72.643   142.899
4561.40     72.726   142.427
4627.75     72.820   141.735
4695.06     72.914   140.809
4763.35     72.996   139.689
4832.64     73.065   138.415
4902.93     73.138   136.783
4974.24     73.104   134.582
5046.60     72.928   133.117
5120.00     72.778   132.371
5194.47     72.664   131.754
5270.03     72.551   131.101
5346.68     72.415   130.470
5424.45     72.266   130.087
5503.35     72.141   130.038
5583.40     72.065   130.119
5664.61     72.016   130.094
5747.01     71.949   129.910
5830.60     71.848   129.762
5915.41     71.722   129.825
6001.45     71.597   130.018
6088.74     71.478   130.236
6177.30     71.349   130.457
6267.15     71.202   130.778
6358.31     71.041   131.453
6450.80     70.880   132.608
6544.62     70.753   134.120
6639.82     70.673   135.748
6736.40     70.607   137.370
6834.38     70.549   139.096
6933.79     70.526   140.894
7034.64     70.542   142.690
7136.96     70.621   144.557
7240.77     70.787   146.146
7346.09     70.980   147.156
7452.94     71.155   147.878
7561.35     71.336   148.265
7671.33     71.475   148.033
7782.91     71.517   147.583
7896.12     71.503   147.408
8010.97     71.460   147.424
8127.49     71.359   147.697
8245.71     71.230   148.586
8365.65     71.142   149.819
8487.33     71.073   150.885
8610.78     70.980   151.984
8736.03     70.904   153.305
8863.09     70.870   154.473
8992.01     70.839   155.400
9122.80     70.813   156.300
9255.50     70.808   156.972
9390.12     70.783   157.309
9526.70     70.711   157.624
9665.27     70.591   158.089
9805.86     70.424   158.877
9948.49     70.254   160.171
10093.2     70.118   161.737
10240.0     70.008   163.405
10388.9     69.943   165.081
10540.1     69.900   166.447
10693.4     69.821   167.592
10848.9     69.701   168.734
11006.7     69.534   169.897
11166.8     69.321   171.309
11329.2     69.099   173.020
11494.0     68.876   174.982
11661.2     68.662   177.174
11830.8     68.450   179.480
12002.9     68.236  -178.036
12177.5     68.031  -175.489
12354.6     67.811  -172.937
12534.3     67.585  -170.292
12716.6     67.360  -167.624
12901.6     67.130  -164.740
13089.2     66.934  -161.640
13279.6     66.782  -158.533
13472.8     66.663  -155.539
13668.8     66.553  -152.896
13867.6     66.401  -150.499
14069.3     66.207  -148.160
14273.9     65.974  -145.823
14481.5     65.697  -143.297
14692.2     65.379  -140.582
14905.9     65.008  -137.608
15122.7     64.586  -134.128
15342.7     64.134  -129.979
15565.8     63.709  -125.118
15792.2     63.373  -119.814
16021.9     63.142  -114.428
16255.0     63.011  -109.198
16491.4     62.943  -104.274
16731.3     62.906   -99.630
16974.7     62.875   -95.122
17221.6     62.821   -90.699
17472.1     62.737   -86.285
17726.2     62.624   -81.746
17984.0     62.497   -77.044
18245.6     62.370   -72.209
18511.0     62.248   -67.369
18780.2     62.134   -62.592
19053.4     62.031   -57.939
19330.5     61.939   -53.518
19611.7     61.853   -49.321
19897.0     61.766   -45.259
20186.4     61.659   -41.085
20480.0     61.516   -36.523
20777.9     61.359   -31.497
21080.1     61.223   -26.026
21386.7     61.128   -20.222
21697.8     61.071   -14.473
22013.4     61.055    -9.144
22333.6     61.060    -4.257
22658.4     61.037     0.177
22988.0     60.978     4.251
23322.4     60.860     8.290
23661.6     60.638    12.423
24005.8     60.319    16.764
24355.0     59.893    21.607
24709.2     59.352    27.169
25068.6     58.765    33.659
25433.2     58.207    41.234
25803.2     57.716    49.640
26178.5     57.331    58.387
26559.3     57.059    67.193
26945.6     56.851    75.889
27337.5     56.642    84.476
27735.2     56.417    93.313
28138.6     56.209   102.655
28547.9     56.059   112.491
28963.1     56.024   122.747
29384.4     56.153   133.104
29811.8     56.447   143.099
30245.4     56.846   152.336
30685.3     57.271   160.591
31131.7     57.656   167.933
31584.5     57.977   174.646
32043.9     58.246  -178.874
32510.0     58.493  -172.406
32982.8     58.726  -166.082
33462.6     58.925  -160.063
33949.3     59.053  -154.379
34443.1     59.071  -148.809
34944.1     58.984  -142.788
35452.4     58.865  -135.880
35968.0     58.828  -128.206
36491.2     58.919  -120.426
37022.0     59.084  -113.302
37560.5     59.243  -107.085
38106.8     59.314  -101.632
38661.1     59.296   -96.179
39223.4     59.216   -90.563
