Freq[Hz]     dBSPL  Phase[Deg]
Freq[Hz]     dBSPL  Phase[Deg]
5.00000    -11.329   -11.286
5.07273    -10.974   -11.376
5.14651    -10.588   -11.474
5.22137    -10.157   -11.582
5.29732     -9.707   -11.696
5.37437     -9.237   -11.816
5.45254     -8.767   -11.937
5.53185     -8.297   -12.060
5.61231     -7.827   -12.185
5.69394     -7.357   -12.312
5.77676     -6.887   -12.441
5.86079     -6.417   -12.571
5.94604     -5.946   -12.704
6.03252     -5.476   -12.838
6.12027     -5.006   -12.974
6.20929     -4.536   -13.113
6.29961     -4.066   -13.253
6.39124     -3.595   -13.395
6.48420     -3.125   -13.540
6.57851     -2.655   -13.686
6.67420     -2.185   -13.835
6.77128     -1.714   -13.986
6.86977     -1.244   -14.139
6.96969     -0.774   -14.294
7.07107     -0.303   -14.451
7.17392      0.167   -14.611
7.27827      0.638   -14.773
7.38413      1.108   -14.938
7.49154      1.579   -15.105
7.60050      2.049   -15.274
7.71105      2.520   -15.446
7.82321      2.990   -15.620
7.93701      3.461   -15.797
8.05245      3.931   -15.976
8.16958      4.402   -16.158
8.28841      4.873   -16.343
8.40896      5.343   -16.530
8.53128      5.814   -16.720
8.65537      6.285   -16.913
8.78126      6.756   -17.109
8.90899      7.226   -17.308
9.03857      7.697   -17.509
9.17004      8.168   -17.714
9.30342      8.639   -17.921
9.43874      9.110   -18.131
9.57603      9.581   -18.345
9.71532     10.052   -18.562
9.85663     10.523   -18.781
10.0000     10.995   -19.005
10.1455     11.466   -19.231
10.2930     11.937   -19.461
10.4427     12.408   -19.694
10.5946     12.880   -19.930
10.7487     13.351   -20.170
10.9051     13.823   -20.413
11.0637     14.294   -20.660
11.2246     14.766   -20.911
11.3879     15.237   -21.165
11.5535     15.709   -21.423
11.7216     16.181   -21.685
11.8921     16.653   -21.951
12.0650     17.125   -22.221
12.2405     17.597   -22.494
12.4186     18.069   -22.772
12.5992     18.541   -23.054
12.7825     19.013   -23.340
12.9684     19.485   -23.630
13.1570     19.958   -23.925
13.3484     20.430   -24.223
13.5426     20.903   -24.527
13.7395     21.375   -24.834
13.9394     21.848   -25.147
14.1421     22.321   -25.464
14.3478     22.794   -25.786
14.5565     23.267   -26.112
14.7683     23.740   -26.444
14.9831     24.214   -26.780
15.2010     24.687   -27.121
15.4221     25.161   -27.468
15.6464     25.634   -27.819
15.8740     26.108   -28.176
16.1049     26.582   -28.539
16.3392     27.056   -28.907
16.5768     27.531   -29.280
16.8179     28.005   -29.659
17.0626     28.480   -30.044
17.3107     28.955   -30.434
17.5625     29.429   -30.831
17.8180     29.905   -31.233
18.0771     30.380   -31.642
18.3401     30.855   -32.057
18.6068     31.331   -32.478
18.8775     31.807   -32.906
19.1521     32.283   -33.341
19.4306     32.760   -33.782
19.7133     33.234   -34.244
20.0000     33.705   -34.746
20.2909     34.165   -35.288
20.5860     34.611   -35.834
20.8855     35.046   -36.248
21.1893     35.473   -36.471
21.4975     35.902   -36.600
21.8102     36.345   -36.732
22.1274     36.804   -36.937
22.4492     37.280   -37.237
22.7758     37.769   -37.595
23.1071     38.268   -38.031
23.4432     38.771   -38.532
23.7841     39.276   -39.173
24.1301     39.779   -40.076
24.4811     40.275   -41.128
24.8372     40.763   -42.148
25.1984     41.243   -43.053
25.5649     41.716   -43.788
25.9368     42.186   -44.443
26.3141     42.657   -45.131
26.6968     43.130   -45.908
27.0851     43.605   -46.808
27.4791     44.083   -47.798
27.8788     44.561   -48.799
28.2843     45.040   -49.740
28.6957     45.519   -50.631
29.1131     45.997   -51.533
29.5365     46.473   -52.476
29.9661     46.949   -53.501
30.4020     47.425   -54.542
30.8442     47.899   -55.570
31.2929     48.373   -56.624
31.7480     48.845   -57.731
32.2098     49.314   -58.945
32.6783     49.778   -60.251
33.1536     50.241   -61.390
33.6359     50.707   -62.211
34.1251     51.186   -62.683
34.6215     51.684   -63.166
35.1250     52.203   -63.939
35.6359     52.736   -65.099
36.1543     53.271   -66.443
36.6802     53.801   -67.831
37.2137     54.325   -69.160
37.7550     54.844   -70.436
38.3041     55.360   -71.800
38.8613     55.878   -73.438
39.4265     56.396   -75.151
40.0000     56.912   -76.767
40.5818     57.429   -78.184
41.1721     57.947   -79.561
41.7710     58.466   -81.072
42.3785     58.983   -82.836
42.9949     59.496   -84.841
43.6203     60.000   -86.986
44.2548     60.495   -89.134
44.8985     60.981   -91.153
45.5515     61.463   -92.990
46.2141     61.945   -94.706
46.8863     62.429   -96.405
47.5683     62.919   -98.169
48.2602     63.414  -100.056
48.9621     63.915  -102.064
49.6743     64.418  -104.164
50.3968     64.922  -106.335
51.1299     65.425  -108.558
51.8736     65.927  -110.826
52.6281     66.426  -113.146
53.3936     66.920  -115.538
54.1702     67.410  -118.014
54.9581     67.894  -120.564
55.7575     68.371  -123.188
56.5685     68.843  -125.892
57.3914     69.308  -128.650
58.2261     69.766  -131.453
59.0730     70.217  -134.322
59.9323     70.658  -137.279
60.8040     71.087  -140.323
61.6884     71.505  -143.437
62.5857     71.911  -146.618
63.4960     72.306  -149.862
64.4196     72.684  -153.154
65.3566     73.044  -156.490
66.3073     73.388  -159.868
67.2717     73.717  -163.277
68.2502     74.036  -166.709
69.2429     74.345  -170.177
70.2501     74.640  -173.696
71.2719     74.913  -177.266
72.3086     75.160   179.153
73.3603     75.382   175.615
74.4274     75.584   172.142
75.5099     75.770   168.739
76.6083     75.943   165.386
77.7226     76.104   162.058
78.8531     76.251   158.758
80.0000     76.384   155.490
81.1636     76.503   152.276
82.3442     76.610   149.138
83.5419     76.705   146.066
84.7570     76.788   143.056
85.9899     76.860   140.122
87.2406     76.922   137.267
88.5096     76.977   134.494
89.7970     77.026   131.800
91.1031     77.072   129.174
92.4282     77.116   126.599
93.7726     77.158   124.078
95.1366     77.195   121.609
96.5204     77.228   119.182
97.9243     77.256   116.795
99.3486     77.278   114.460
100.794     77.295   112.179
102.260     77.308   109.959
103.747     77.318   107.809
105.256     77.330   105.725
106.787     77.346   103.668
108.340     77.361   101.611
109.916     77.372    99.565
111.515     77.375    97.550
113.137     77.370    95.585
114.783     77.361    93.694
116.452     77.353    91.869
118.146     77.347    90.078
119.865     77.341    88.305
121.608     77.332    86.553
123.377     77.318    84.840
125.171     77.301    83.191
126.992     77.284    81.603
128.839     77.268    80.065
130.713     77.256    78.568
132.615     77.248    77.090
134.543     77.241    75.620
136.500     77.234    74.168
138.486     77.228    72.735
140.500     77.223    71.315
142.544     77.218    69.910
144.617     77.213    68.517
146.721     77.209    67.131
148.855     77.202    65.756
151.020     77.193    64.394
153.217     77.181    63.050
155.445     77.166    61.731
157.706     77.148    60.433
160.000     77.126    59.162
162.327     77.100    57.946
164.688     77.074    56.800
167.084     77.053    55.717
169.514     77.041    54.678
171.980     77.038    53.643
174.481     77.041    52.576
177.019     77.043    51.475
179.594     77.040    50.351
182.206     77.030    49.238
184.856     77.017    48.164
187.545     77.005    47.124
190.273     76.993    46.114
193.041     76.983    45.129
195.849     76.975    44.160
198.697     76.969    43.198
201.587     76.962    42.231
204.520     76.951    41.261
207.494     76.933    40.330
210.512     76.913    39.482
213.574     76.898    38.740
216.681     76.900    38.067
219.833     76.923    37.368
223.030     76.960    36.555
226.274     76.995    35.577
229.565     77.013    34.487
232.905     77.011    33.403
236.292     76.996    32.397
239.729     76.977    31.502
243.216     76.964    30.705
246.754     76.960    29.952
250.343     76.964    29.203
253.984     76.973    28.463
257.678     76.993    27.735
261.426     77.027    26.929
265.229     77.059    25.973
269.087     77.074    24.917
273.001     77.069    23.831
276.972     77.042    22.818
281.000     77.010    21.993
285.088     76.999    21.321
289.234     77.015    20.641
293.441     77.047    19.812
297.709     77.075    18.808
302.040     77.082    17.709
306.433     77.067    16.630
310.890     77.038    15.650
315.412     77.004    14.795
320.000     76.978    14.018
324.655     76.960    13.237
329.377     76.943    12.423
334.168     76.928    11.573
339.028     76.904    10.715
343.959     76.870     9.926
348.962     76.841     9.246
354.038     76.823     8.611
359.188     76.811     7.980
364.412     76.810     7.341
369.713     76.818     6.609
375.090     76.820     5.772
380.546     76.811     4.909
386.081     76.793     4.044
391.697     76.766     3.193
397.394     76.724     2.357
403.175     76.659     1.637
409.039     76.591     1.179
414.989     76.550     0.926
421.025     76.547     0.767
427.149     76.591     0.573
433.362     76.671     0.140
439.665     76.752    -0.645
446.060     76.808    -1.706
452.548     76.829    -2.890
459.131     76.809    -4.067
465.809     76.761    -5.098
472.584     76.707    -5.948
479.458     76.657    -6.706
486.432     76.605    -7.395
493.507     76.551    -7.971
500.686     76.508    -8.389
507.968     76.487    -8.689
515.357     76.489    -8.921
522.853     76.525    -9.113
530.458     76.603    -9.417
538.174     76.709    -9.976
546.002     76.832   -10.864
553.943     76.945   -12.098
562.001     77.027   -13.553
570.175     77.070   -15.111
578.469     77.061   -16.659
586.883     77.015   -18.009
595.419     76.959   -19.114
604.080     76.902   -20.131
612.866     76.851   -21.102
621.780     76.810   -21.980
630.824     76.769   -22.832
640.000     76.734   -23.651
649.309     76.718   -24.468
658.753     76.712   -25.482
668.335     76.698   -26.708
678.056     76.665   -28.069
687.919     76.609   -29.422
697.925     76.545   -30.589
708.077     76.505   -31.775
718.376     76.441   -33.321
728.825     76.273   -34.805
739.426     76.081   -35.652
750.181     75.947   -36.194
761.093     75.848   -36.846
772.163     75.759   -37.518
783.394     75.685   -38.148
794.789     75.624   -38.834
806.349     75.574   -39.573
818.078     75.524   -40.447
829.977     75.450   -41.438
842.050     75.353   -42.438
854.298     75.239   -43.513
866.724     75.085   -44.622
879.330     74.887   -45.531
892.120     74.682   -46.091
905.097     74.477   -46.217
918.262     74.300   -45.877
931.618     74.193   -45.279
945.169     74.152   -44.727
958.917     74.170   -44.485
972.864     74.197   -44.647
987.015     74.206   -44.883
1001.37     74.247   -45.013
1015.94     74.324   -45.279
1030.71     74.423   -45.795
1045.71     74.549   -46.671
1060.92     74.649   -48.178
1076.35     74.646   -50.200
1092.00     74.519   -52.085
1107.89     74.331   -53.372
1124.00     74.151   -54.101
1140.35     74.020   -54.341
1156.94     73.979   -54.356
1173.77     74.001   -54.725
1190.84     73.994   -55.539
1208.16     73.931   -56.436
1225.73     73.851   -57.241
1243.56     73.776   -57.898
1261.65     73.734   -58.501
1280.00     73.741   -59.220
1298.62     73.767   -60.107
1317.51     73.781   -61.326
1336.67     73.747   -62.733
1356.11     73.663   -63.966
1375.84     73.566   -65.129
1395.85     73.449   -66.304
1416.15     73.314   -67.408
1436.75     73.186   -68.496
1457.65     73.045   -69.587
1478.85     72.862   -70.641
1500.36     72.646   -71.462
1522.19     72.421   -71.966
1544.33     72.176   -72.401
1566.79     71.900   -72.722
1589.58     71.601   -72.557
1612.70     71.311   -71.532
1636.16     71.134   -69.698
1659.95     71.120   -67.839
1684.10     71.176   -66.405
1708.60     71.243   -65.358
1733.45     71.327   -64.532
1758.66     71.429   -63.680
1784.24     71.544   -62.804
1810.19     71.683   -61.871
1836.52     71.862   -60.697
1863.24     72.088   -59.354
1890.34     72.388   -58.088
1917.83     72.784   -57.087
1945.73     73.267   -56.556
1974.03     73.802   -56.793
2002.74     74.346   -57.849
2031.87     74.871   -59.584
2061.43     75.360   -61.926
2091.41     75.800   -64.765
2121.83     76.184   -67.963
2152.69     76.524   -71.413
2184.01     76.814   -75.064
2215.77     77.028   -78.823
2248.00     77.185   -82.463
2280.70     77.320   -85.931
2313.87     77.457   -89.395
2347.53     77.605   -92.936
2381.68     77.756   -96.672
2416.32     77.883  -100.721
2451.46     77.943  -104.932
2487.12     77.923  -109.066
2523.30     77.841  -112.987
2560.00     77.708  -116.615
2597.24     77.544  -119.932
2635.01     77.370  -122.943
2673.34     77.206  -125.626
2712.23     77.084  -128.062
2751.68     77.018  -130.459
2791.70     76.993  -132.937
2832.31     77.003  -135.577
2873.50     77.036  -138.432
2915.30     77.076  -141.404
2957.70     77.131  -144.461
3000.72     77.206  -147.727
3044.37     77.286  -151.317
3088.65     77.346  -155.298
3133.58     77.368  -159.392
3179.16     77.440  -163.653
3225.40     77.489  -168.564
3272.31     77.475  -173.636
3319.91     77.414  -178.624
3368.20     77.334   176.533
3417.19     77.250   171.730
3466.89     77.166   166.872
3517.32     77.079   161.907
3568.48     76.980   156.825
3620.39     76.865   151.688
3673.05     76.738   146.497
3726.47     76.595   141.202
3780.67     76.443   135.776
3835.67     76.285   130.208
3891.46     76.121   124.525
3948.06     75.957   118.759
4005.49     75.801   112.946
4063.75     75.661   107.097
4122.86     75.546   101.178
4182.82     75.460    95.084
4243.66     75.393    88.700
4305.39     75.332    82.032
4368.01     75.283    75.062
4431.55     75.236    67.719
4496.01     75.175    60.085
4561.40     75.108    52.300
4627.75     75.048    44.371
4695.06     74.991    36.252
4763.35     74.935    27.973
4832.64     74.907    19.546
4902.93     74.928    10.555
4974.24     74.857     0.667
5046.60     74.675    -8.551
5120.00     74.590   -17.260
5194.47     74.592   -26.273
5270.03     74.621   -35.769
5346.68     74.632   -45.712
5424.45     74.592   -55.991
5503.35     74.479   -66.383
5583.40     74.302   -76.700
5664.61     74.075   -86.896
5747.01     73.795   -96.917
5830.60     73.465  -106.549
5915.41     73.108  -115.557
6001.45     72.756  -123.874
6088.74     72.442  -131.541
6177.30     72.203  -138.705
6267.15     72.058  -145.643
6358.31     72.009  -152.626
6450.80     72.040  -159.899
6544.62     72.109  -167.654
6639.82     72.166  -175.853
6736.40     72.176   175.773
6834.38     72.144   167.504
6933.79     72.100   159.477
7034.64     72.071   151.719
7136.96     72.111   144.045
7240.77     72.236   136.113
7346.09     72.416   127.739
7452.94     72.642   118.865
7561.35     72.893   109.368
7671.33     73.109    99.186
7782.91     73.258    88.531
7896.12     73.331    77.606
8010.97     73.318    66.506
8127.49     73.230    55.621
8245.71     73.125    45.228
8365.65     73.062    35.091
8487.33     73.058    25.003
8610.78     73.114    14.866
8736.03     73.235     4.430
8863.09     73.403    -6.452
8992.01     73.604   -17.777
9122.80     73.832   -29.630
9255.50     74.069   -42.123
9390.12     74.300   -55.322
9526.70     74.496   -69.300
9665.27     74.602   -83.915
9805.86     74.593   -98.793
9948.49     74.477  -113.614
10093.2     74.259  -128.069
10240.0     73.986  -141.884
10388.9     73.740  -155.083
10540.1     73.577  -167.958
10693.4     73.526   179.067
10848.9     73.569   165.597
11006.7     73.656   151.442
11166.8     73.746   136.575
11329.2     73.800   121.142
11494.0     73.815   105.350
11661.2     73.805    89.245
11830.8     73.763    72.788
12002.9     73.680    55.971
12177.5     73.546    38.863
12354.6     73.352    21.572
12534.3     73.097     4.213
12716.6     72.795   -13.122
12901.6     72.456   -30.430
13089.2     72.090   -47.663
13279.6     71.708   -64.773
13472.8     71.318   -81.705
13668.8     70.939   -98.369
13867.6     70.600  -114.817
14069.3     70.319  -131.155
14273.9     70.122  -147.572
14481.5     70.001  -164.318
14692.2     69.934   178.442
14905.9     69.901   160.572
15122.7     69.869   142.058
15342.7     69.830   122.966
15565.8     69.778   103.335
15792.2     69.717    83.253
16021.9     69.647    62.759
16255.0     69.550    41.863
16491.4     69.414    20.632
16731.3     69.228    -0.778
16974.7     69.000   -22.220
17221.6     68.760   -43.691
17472.1     68.529   -65.261
17726.2     68.310   -87.099
17984.0     68.091  -109.408
18245.6     67.851  -132.241
18511.0     67.558  -155.521
18780.2     67.197  -179.149
19053.4     66.793   157.033
19330.5     66.368   133.197
19611.7     65.935   109.340
19897.0     65.521    85.450
20186.4     65.131    61.588
20480.0     64.752    37.716
20777.9     64.387    13.884
21080.1     64.037    -9.815
21386.7     63.719   -33.459
21697.8     63.483   -57.136
22013.4     63.363   -80.981
22333.6     63.364  -105.282
22658.4     63.455  -130.343
22988.0     63.576  -156.271
23322.4     63.677   177.062
23661.6     63.745   149.793
24005.8     63.816   121.987
24355.0     63.928    93.631
24709.2     64.076    64.544
25068.6     64.234    34.506
25433.2     64.354     3.458
25803.2     64.386   -28.388
26178.5     64.312   -60.616
26559.3     64.162   -92.790
26945.6     64.002  -124.727
27337.5     63.889  -156.568
27735.2     63.853   171.451
28138.6     63.915   139.003
28547.9     64.067   105.706
28963.1     64.269    71.402
29384.4     64.493    36.048
29811.8     64.724    -0.498
30245.4     64.922   -38.400
30685.3     65.021   -77.641
31131.7     64.965  -117.865
31584.5     64.719  -158.365
32043.9     64.306   161.815
32510.0     63.833   123.356
32982.8     63.460    86.202
33462.6     63.331    49.732
33949.3     63.521    13.050
34443.1     64.008   -24.834
34944.1     64.699   -64.631
35452.4     65.488  -106.587
35968.0     66.297  -150.727
36491.2     67.071   162.986
37022.0     67.764   114.731
37560.5     68.340    64.854
38106.8     68.761    19.374
38661.1     69.043   -21.776
39223.4     69.212   -50.985
