Freq[Hz]     dBSPL  Phase[Deg]
Freq[Hz]     dBSPL  Phase[Deg]
5.00000    -11.200   -11.717
5.07273    -10.845   -11.806
5.14651    -10.460   -11.902
5.22137    -10.029   -12.008
5.29732     -9.580   -12.118
5.37437     -9.111   -12.235
5.45254     -8.641   -12.353
5.53185     -8.172   -12.473
5.61231     -7.702   -12.594
5.69394     -7.232   -12.717
5.77676     -6.763   -12.842
5.86079     -6.293   -12.969
5.94604     -5.824   -13.098
6.03252     -5.354   -13.229
6.12027     -4.884   -13.361
6.20929     -4.415   -13.496
6.29961     -3.945   -13.632
6.39124     -3.475   -13.770
6.48420     -3.006   -13.911
6.57851     -2.536   -14.053
6.67420     -2.066   -14.198
6.77128     -1.597   -14.344
6.86977     -1.127   -14.493
6.96969     -0.657   -14.644
7.07107     -0.187   -14.797
7.17392      0.283   -14.953
7.27827      0.752   -15.110
7.38413      1.222   -15.270
7.49154      1.692   -15.432
7.60050      2.162   -15.597
7.71105      2.632   -15.764
7.82321      3.102   -15.934
7.93701      3.572   -16.106
8.05245      4.042   -16.280
8.16958      4.512   -16.457
8.28841      4.982   -16.637
8.40896      5.453   -16.819
8.53128      5.923   -17.004
8.65537      6.393   -17.191
8.78126      6.863   -17.382
8.90899      7.333   -17.575
9.03857      7.804   -17.771
9.17004      8.274   -17.969
9.30342      8.744   -18.171
9.43874      9.215   -18.376
9.57603      9.685   -18.583
9.71532     10.156   -18.794
9.85663     10.626   -19.008
10.0000     11.097   -19.225
10.1455     11.568   -19.445
10.2930     12.038   -19.668
10.4427     12.509   -19.895
10.5946     12.980   -20.125
10.7487     13.451   -20.358
10.9051     13.922   -20.595
11.0637     14.393   -20.835
11.2246     14.864   -21.079
11.3879     15.335   -21.326
11.5535     15.806   -21.577
11.7216     16.277   -21.832
11.8921     16.748   -22.090
12.0650     17.220   -22.352
12.2405     17.691   -22.618
12.4186     18.163   -22.888
12.5992     18.634   -23.163
12.7825     19.106   -23.441
12.9684     19.578   -23.723
13.1570     20.049   -24.009
13.3484     20.521   -24.300
13.5426     20.993   -24.595
13.7395     21.465   -24.894
13.9394     21.938   -25.198
14.1421     22.410   -25.506
14.3478     22.882   -25.819
14.5565     23.355   -26.137
14.7683     23.828   -26.459
14.9831     24.300   -26.786
15.2010     24.773   -27.118
15.4221     25.246   -27.455
15.6464     25.719   -27.797
15.8740     26.193   -28.145
16.1049     26.666   -28.497
16.3392     27.140   -28.855
16.5768     27.613   -29.218
16.8179     28.087   -29.587
17.0626     28.561   -29.961
17.3107     29.035   -30.341
17.5625     29.510   -30.727
17.8180     29.984   -31.118
18.0771     30.459   -31.516
18.3401     30.934   -31.920
18.6068     31.409   -32.329
18.8775     31.885   -32.746
19.1521     32.360   -33.168
19.4306     32.836   -33.597
19.7133     33.310   -34.048
20.0000     33.779   -34.540
20.2909     34.236   -35.076
20.5860     34.679   -35.622
20.8855     35.110   -36.037
21.1893     35.534   -36.260
21.4975     35.960   -36.380
21.8102     36.401   -36.486
22.1274     36.859   -36.653
22.4492     37.334   -36.914
22.7758     37.824   -37.242
23.1071     38.323   -37.664
23.4432     38.828   -38.170
23.7841     39.334   -38.823
24.1301     39.836   -39.733
24.4811     40.332   -40.784
24.8372     40.819   -41.791
25.1984     41.297   -42.677
25.5649     41.771   -43.392
25.9368     42.242   -44.028
26.3141     42.713   -44.703
26.6968     43.187   -45.471
27.0851     43.664   -46.368
27.4791     44.141   -47.356
27.8788     44.620   -48.354
28.2843     45.098   -49.288
28.6957     45.576   -50.170
29.1131     46.054   -51.059
29.5365     46.531   -51.989
29.9661     47.008   -53.003
30.4020     47.484   -54.036
30.8442     47.959   -55.062
31.2929     48.432   -56.115
31.7480     48.903   -57.215
32.2098     49.369   -58.412
32.6783     49.833   -59.686
33.1536     50.298   -60.792
33.6359     50.770   -61.593
34.1251     51.254   -62.068
34.6215     51.755   -62.573
35.1250     52.274   -63.371
35.6359     52.803   -64.543
36.1543     53.334   -65.881
36.6802     53.863   -67.250
37.2137     54.387   -68.561
37.7550     54.907   -69.822
38.3041     55.424   -71.178
38.8613     55.940   -72.806
39.4265     56.457   -74.503
40.0000     56.974   -76.101
40.5818     57.492   -77.506
41.1721     58.011   -78.878
41.7710     58.530   -80.389
42.3785     59.047   -82.152
42.9949     59.558   -84.150
43.6203     60.061   -86.281
44.2548     60.554   -88.409
44.8985     61.041   -90.405
45.5515     61.523   -92.221
46.2141     62.006   -93.919
46.8863     62.492   -95.604
47.5683     62.983   -97.357
48.2602     63.479   -99.233
48.9621     63.980  -101.231
49.6743     64.484  -103.322
50.3968     64.988  -105.485
51.1299     65.492  -107.702
51.8736     65.993  -109.962
52.6281     66.492  -112.272
53.3936     66.986  -114.649
54.1702     67.475  -117.105
54.9581     67.959  -119.634
55.7575     68.437  -122.237
56.5685     68.909  -124.924
57.3914     69.376  -127.669
58.2261     69.836  -130.461
59.0730     70.288  -133.321
59.9323     70.730  -136.270
60.8040     71.159  -139.303
61.6884     71.576  -142.406
62.5857     71.982  -145.572
63.4960     72.376  -148.798
64.4196     72.755  -152.070
65.3566     73.115  -155.384
66.3073     73.460  -158.740
67.2717     73.791  -162.131
68.2502     74.111  -165.547
69.2429     74.421  -169.002
70.2501     74.717  -172.510
71.2719     74.990  -176.069
72.3086     75.237  -179.637
73.3603     75.459   176.842
74.4274     75.661   173.389
75.5099     75.847   170.007
76.6083     76.021   166.677
77.7226     76.183   163.371
78.8531     76.332   160.092
80.0000     76.466   156.842
81.1636     76.587   153.645
82.3442     76.695   150.523
83.5419     76.791   147.466
84.7570     76.874   144.472
85.9899     76.947   141.554
87.2406     77.009   138.719
88.5096     77.064   135.968
89.7970     77.113   133.298
91.1031     77.160   130.697
92.4282     77.206   128.147
93.7726     77.249   125.650
95.1366     77.287   123.204
96.5204     77.322   120.798
97.9243     77.351   118.435
99.3486     77.374   116.124
100.794     77.392   113.868
102.260     77.407   111.673
103.747     77.420   109.549
105.256     77.434   107.487
106.787     77.451   105.451
108.340     77.467   103.414
109.916     77.479   101.390
111.515     77.483    99.398
113.137     77.480    97.456
114.783     77.472    95.590
116.452     77.465    93.792
118.146     77.459    92.031
119.865     77.454    90.293
121.608     77.446    88.580
123.377     77.435    86.909
125.171     77.421    85.300
126.992     77.407    83.748
128.839     77.396    82.242
130.713     77.389    80.770
132.615     77.385    79.311
134.543     77.381    77.857
136.500     77.377    76.418
138.486     77.372    75.000
140.500     77.368    73.600
142.544     77.363    72.221
144.617     77.359    70.862
146.721     77.356    69.517
148.855     77.351    68.186
151.020     77.345    66.867
153.217     77.337    65.564
155.445     77.327    64.279
157.706     77.315    63.010
160.000     77.298    61.764
162.327     77.275    60.570
164.688     77.253    59.442
167.084     77.234    58.380
169.514     77.224    57.367
171.980     77.223    56.362
174.481     77.228    55.332
177.019     77.233    54.274
179.594     77.234    53.194
182.206     77.230    52.120
184.856     77.222    51.077
187.545     77.214    50.062
190.273     77.205    49.076
193.041     77.198    48.122
195.849     77.192    47.191
198.697     77.188    46.279
201.587     77.185    45.370
204.520     77.179    44.460
207.494     77.169    43.592
210.512     77.158    42.804
213.574     77.155    42.108
216.681     77.171    41.460
219.833     77.208    40.761
223.030     77.255    39.922
226.274     77.295    38.907
229.565     77.314    37.793
232.905     77.308    36.710
236.292     77.290    35.735
239.729     77.270    34.898
243.216     77.260    34.173
246.754     77.263    33.483
250.343     77.275    32.781
253.984     77.293    32.073
257.678     77.320    31.369
261.426     77.358    30.591
265.229     77.394    29.682
269.087     77.417    28.683
273.001     77.421    27.647
276.972     77.404    26.672
281.000     77.381    25.870
285.088     77.377    25.210
289.234     77.397    24.555
293.441     77.432    23.776
297.709     77.464    22.838
302.040     77.479    21.813
306.433     77.475    20.805
310.890     77.458    19.893
315.412     77.440    19.104
320.000     77.433    18.383
324.655     77.436    17.635
329.377     77.441    16.823
334.168     77.444    15.949
339.028     77.436    15.054
343.959     77.417    14.231
348.962     77.403    13.509
354.038     77.399    12.808
359.188     77.398    12.092
364.412     77.402    11.365
369.713     77.410    10.557
375.090     77.407     9.682
380.546     77.394     8.833
386.081     77.378     8.005
391.697     77.358     7.190
397.394     77.327     6.381
403.175     77.275     5.675
409.039     77.223     5.195
414.989     77.198     4.873
421.025     77.205     4.601
427.149     77.249     4.273
433.362     77.319     3.723
439.665     77.382     2.884
446.060     77.418     1.844
452.548     77.423     0.748
459.131     77.395    -0.298
465.809     77.346    -1.180
472.584     77.300    -1.889
479.458     77.262    -2.523
486.432     77.228    -3.106
493.507     77.199    -3.602
500.686     77.186    -3.998
507.968     77.194    -4.367
515.357     77.217    -4.749
522.853     77.260    -5.131
530.458     77.327    -5.600
538.174     77.409    -6.239
546.002     77.500    -7.101
553.943     77.584    -8.197
562.001     77.649    -9.441
570.175     77.691   -10.796
578.469     77.692   -12.181
586.883     77.661   -13.416
595.419     77.624   -14.470
604.080     77.581   -15.474
612.866     77.534   -16.422
621.780     77.496   -17.223
630.824     77.466   -17.935
640.000     77.453   -18.604
649.309     77.465   -19.300
658.753     77.483   -20.217
668.335     77.482   -21.346
678.056     77.455   -22.561
687.919     77.402   -23.676
697.925     77.353   -24.534
708.077     77.352   -25.407
718.376     77.347   -26.708
728.825     77.251   -28.043
739.426     77.138   -28.839
750.181     77.090   -29.441
761.093     77.073   -30.279
772.163     77.053   -31.243
783.394     77.030   -32.239
794.789     76.991   -33.313
806.349     76.935   -34.353
818.078     76.870   -35.369
829.977     76.789   -36.361
842.050     76.712   -37.243
854.298     76.656   -38.146
866.724     76.598   -39.137
879.330     76.534   -40.149
892.120     76.468   -41.223
905.097     76.373   -42.283
918.262     76.239   -43.112
931.618     76.099   -43.661
945.169     75.982   -43.977
958.917     75.912   -44.152
972.864     75.883   -44.459
987.015     75.866   -44.933
1001.37     75.865   -45.436
1015.94     75.874   -46.107
1030.71     75.876   -46.990
1045.71     75.887   -47.956
1060.92     75.900   -49.143
1076.35     75.868   -50.617
1092.00     75.756   -51.974
1107.89     75.621   -52.847
1124.00     75.526   -53.399
1140.35     75.482   -53.809
1156.94     75.513   -54.207
1173.77     75.592   -55.130
1190.84     75.609   -56.645
1208.16     75.540   -58.187
1225.73     75.434   -59.518
1243.56     75.315   -60.564
1261.65     75.231   -61.376
1280.00     75.200   -62.247
1298.62     75.188   -63.255
1317.51     75.185   -64.527
1336.67     75.157   -66.010
1356.11     75.092   -67.339
1375.84     75.040   -68.633
1395.85     74.990   -70.096
1416.15     74.922   -71.661
1436.75     74.849   -73.357
1457.65     74.754   -75.090
1478.85     74.640   -76.794
1500.36     74.518   -78.486
1522.19     74.401   -80.238
1544.33     74.274   -82.388
1566.79     74.075   -84.980
1589.58     73.775   -87.569
1612.70     73.386   -89.608
1636.16     72.987   -90.844
1659.95     72.673   -91.782
1684.10     72.399   -92.964
1708.60     72.100   -94.481
1733.45     71.758   -96.163
1758.66     71.335   -97.701
1784.24     70.821   -99.028
1810.19     70.229  -100.066
1836.52     69.539  -100.520
1863.24     68.745  -100.174
1890.34     67.883   -98.898
1917.83     66.991   -96.530
1945.73     66.103   -92.543
1974.03     65.319   -86.466
2002.74     64.783   -78.338
2031.87     64.721   -68.578
2061.43     65.273   -59.297
2091.41     66.217   -52.709
2121.83     67.281   -49.319
2152.69     68.289   -48.638
2184.01     69.124   -49.667
2215.77     69.773   -51.470
2248.00     70.277   -53.327
2280.70     70.694   -55.093
2313.87     71.077   -56.990
2347.53     71.428   -58.906
2381.68     71.738   -60.753
2416.32     72.012   -62.470
2451.46     72.253   -63.800
2487.12     72.507   -64.831
2523.30     72.825   -66.006
2560.00     73.171   -67.763
2597.24     73.493   -70.284
2635.01     73.755   -73.396
2673.34     73.911   -76.759
2712.23     73.962   -80.075
2751.68     73.936   -83.171
2791.70     73.852   -85.935
2832.31     73.748   -88.437
2873.50     73.628   -90.866
2915.30     73.469   -93.171
2957.70     73.279   -95.206
3000.72     73.068   -96.892
3044.37     72.840   -98.073
3088.65     72.621   -98.738
3133.58     72.386   -98.728
3179.16     72.294   -97.443
3225.40     72.432   -96.536
3272.31     72.646   -96.361
3319.91     72.897   -96.605
3368.20     73.193   -97.170
3417.19     73.539   -98.108
3466.89     73.932   -99.483
3517.32     74.351  -101.450
3568.48     74.753  -104.105
3620.39     75.102  -107.341
3673.05     75.373  -110.889
3726.47     75.565  -114.515
3780.67     75.713  -118.102
3835.67     75.844  -121.630
3891.46     75.961  -125.217
3948.06     76.073  -128.943
4005.49     76.175  -132.801
4063.75     76.244  -136.802
4122.86     76.272  -140.880
4182.82     76.250  -144.910
4243.66     76.174  -148.826
4305.39     76.047  -152.528
4368.01     75.887  -155.846
4431.55     75.723  -158.703
4496.01     75.587  -161.108
4561.40     75.508  -163.099
4627.75     75.517  -164.846
4695.06     75.631  -166.684
4763.35     75.835  -168.906
4832.64     76.112  -171.686
4902.93     76.452  -175.338
4974.24     76.733   179.706
5046.60     76.859   174.634
5120.00     76.975   169.729
5194.47     77.089   164.501
5270.03     77.156   158.796
5346.68     77.134   152.781
5424.45     77.009   146.773
5503.35     76.799   141.039
5583.40     76.534   135.751
5664.61     76.242   130.905
5747.01     75.933   126.451
5830.60     75.613   122.417
5915.41     75.305   118.800
6001.45     75.036   115.526
6088.74     74.828   112.448
6177.30     74.686   109.373
6267.15     74.589   106.185
6358.31     74.513   102.901
6450.80     74.460    99.588
6544.62     74.439    96.234
6639.82     74.458    92.749
6736.40     74.521    88.995
6834.38     74.609    84.836
6933.79     74.691    80.352
7034.64     74.765    75.703
7136.96     74.831    70.942
7240.77     74.893    66.108
7346.09     74.961    61.139
7452.94     75.025    55.976
7561.35     75.082    50.704
7671.33     75.142    45.329
7782.91     75.196    39.890
7896.12     75.253    34.468
8010.97     75.333    28.922
8127.49     75.428    23.105
8245.71     75.525    17.035
8365.65     75.627    10.705
8487.33     75.732     4.105
8610.78     75.826    -2.752
8736.03     75.890    -9.860
8863.09     75.917   -17.092
8992.01     75.917   -24.313
9122.80     75.894   -31.476
9255.50     75.860   -38.430
9390.12     75.856   -45.086
9526.70     75.904   -51.600
9665.27     76.008   -58.155
9805.86     76.171   -64.943
9948.49     76.371   -72.135
10093.2     76.591   -79.762
10240.0     76.823   -87.878
10388.9     77.040   -96.473
10540.1     77.231  -105.428
10693.4     77.388  -114.722
10848.9     77.495  -124.299
11006.7     77.554  -134.017
11166.8     77.572  -143.814
11329.2     77.552  -153.659
11494.0     77.498  -163.477
11661.2     77.415  -173.221
11830.8     77.306   177.160
12002.9     77.183   167.740
12177.5     77.065   158.486
12354.6     76.968   149.290
12534.3     76.901   140.040
12716.6     76.862   130.584
12901.6     76.834   120.855
13089.2     76.801   110.890
13279.6     76.754   100.758
13472.8     76.693    90.575
13668.8     76.636    80.401
13867.6     76.602    70.171
14069.3     76.602    59.753
14273.9     76.626    48.980
14481.5     76.646    37.756
14692.2     76.633    26.144
14905.9     76.565    14.304
15122.7     76.446     2.431
15342.7     76.295    -9.335
15565.8     76.146   -20.991
15792.2     76.019   -32.614
16021.9     75.918   -44.331
16255.0     75.836   -56.207
16491.4     75.757   -68.201
16731.3     75.678   -80.241
16974.7     75.609   -92.270
17221.6     75.561  -104.350
17472.1     75.535  -116.644
17726.2     75.517  -129.282
17984.0     75.483  -142.341
18245.6     75.416  -155.829
18511.0     75.307  -169.677
18780.2     75.153   176.204
19053.4     74.957   161.927
19330.5     74.730   147.625
19611.7     74.494   133.434
19897.0     74.283   119.429
20186.4     74.136   105.498
20480.0     74.073    91.378
20777.9     74.074    76.789
21080.1     74.092    61.543
21386.7     74.075    45.654
21697.8     73.978    29.327
22013.4     73.791    12.859
22333.6     73.524    -3.485
22658.4     73.210   -19.551
22988.0     72.893   -35.293
23322.4     72.608   -50.851
23661.6     72.374   -66.500
24005.8     72.186   -82.425
24355.0     72.020   -98.674
24709.2     71.850  -115.192
25068.6     71.656  -131.783
25433.2     71.444  -148.249
25803.2     71.241  -164.585
26178.5     71.081   179.032
26559.3     70.984   162.331
26945.6     70.940   145.110
27337.5     70.923   127.383
27735.2     70.908   109.297
28138.6     70.871    91.048
28547.9     70.808    72.834
28963.1     70.746    54.739
29384.4     70.728    36.690
29811.8     70.786    18.500
30245.4     70.950    -0.017
30685.3     71.240   -19.075
31131.7     71.642   -38.993
31584.5     72.105   -59.978
32043.9     72.573   -82.025
32510.0     73.011  -105.042
32982.8     73.398  -128.841
33462.6     73.735  -153.185
33949.3     74.041  -177.993
34443.1     74.318   156.691
34944.1     74.555   130.900
35452.4     74.756   104.705
35968.0     74.932    78.129
36491.2     75.088    51.169
37022.0     75.228    23.751
37560.5     75.336    -4.120
38106.8     75.394   -28.988
38661.1     75.412   -50.949
39223.4     75.395   -65.705
