Freq[Hz]     dBSPL  Phase[Deg]
5.00000    -14.045    63.444
5.07273    -14.111    64.265
5.14651    -14.340    65.664
5.22137    -15.022    68.676
5.29732    -15.705    71.689
5.37437    -16.387    74.701
5.45254    -17.069    77.713
5.53185    -17.552    85.287
5.61231    -17.823    97.687
5.69394    -18.094   110.087
5.77676    -18.365   122.486
5.86079    -18.612   134.783
5.94604    -17.399   141.006
6.03252    -16.185   147.228
6.12027    -14.972   153.451
6.20929    -13.759   159.674
6.29961    -13.104   160.926
6.39124    -12.573   161.077
6.48420    -12.042   161.227
6.57851    -11.511   161.378
6.67420    -11.852   161.036
6.77128    -12.335   160.614
6.86977    -12.818   160.192
6.96969    -13.528   161.123
7.07107    -15.963   172.341
7.17392    -18.399  -176.442
7.27827    -20.834  -165.224
7.38413    -20.383  -146.524
7.49154    -17.702  -122.045
7.60050    -15.020   -97.565
7.71105    -12.521   -77.595
7.82321    -10.820   -77.435
7.93701     -9.120   -77.274
8.05245     -7.419   -77.113
8.16958     -7.126   -78.256
8.28841     -6.886   -79.447
8.40896     -6.645   -80.639
8.53128     -8.287   -77.026
8.65537    -10.172   -72.794
8.78126    -12.056   -68.561
8.90899    -10.660   -29.741
9.03857     -9.048    11.345
9.17004     -7.203    48.219
9.30342     -3.496    51.565
9.43874      0.211    54.911
9.57603      3.330    56.820
9.71532      5.548    56.533
9.85663      7.767    56.246
10.0000      9.527    55.698
10.1455     11.159    55.078
10.2930     12.714    54.389
10.4427     14.054    53.504
10.5946     15.394    52.620
10.7487     16.598    51.257
10.9051     17.776    49.799
11.0637     18.870    47.986
11.2246     19.877    45.797
11.3879     20.840    43.477
11.5535     21.643    40.677
11.7216     22.441    37.872
11.8921     23.009    34.795
12.0650     23.576    31.718
12.2405     23.927    28.840
12.4186     24.250    25.988
12.5992     24.394    23.862
12.7825     24.498    21.895
12.9684     24.501    21.215
13.1570     24.481    20.834
13.3484     24.521    22.001
13.5426     24.571    23.420
13.7395     24.867    25.578
13.9394     25.197    27.659
14.1421     25.724    28.934
14.3478     26.254    29.708
14.5565     26.791    29.407
14.7683     27.231    28.525
14.9831     27.595    27.195
15.2010     27.742    25.909
15.4221     27.810    24.873
15.6464     27.694    24.906
15.8740     27.543    26.292
16.1049     27.365    28.758
16.3392     27.432    33.532
16.5768     27.694    38.529
16.8179     28.226    43.724
17.0626     29.022    47.305
17.3107     29.857    49.844
17.5625     30.700    51.116
17.8180     31.411    51.164
18.0771     32.028    50.881
18.3401     32.547    50.358
18.6068     32.944    49.835
18.8775     33.271    49.438
19.1521     33.544    49.144
19.4306     33.769    48.952
19.7133     33.931    48.881
20.0000     34.033    49.001
20.2909     34.088    49.426
20.5860     34.111    50.279
20.8855     34.127    51.689
21.1893     34.211    53.784
21.4975     34.412    56.166
21.8102     34.738    58.457
22.1274     35.179    60.349
22.4492     35.702    61.640
22.7758     36.270    62.282
23.1071     36.856    62.359
23.4432     37.445    61.997
23.7841     38.032    61.273
24.1301     38.606    60.272
24.4811     39.153    59.090
24.8372     39.654    57.896
25.1984     40.103    56.947
25.5649     40.515    56.527
25.9368     40.933    56.841
26.3141     41.413    57.875
26.6968     42.003    59.328
27.0851     42.707    60.729
27.4791     43.480    61.669
27.8788     44.247    62.037
28.2843     44.955    62.038
28.6957     45.586    61.962
29.1131     46.152    62.046
29.5365     46.686    62.371
29.9661     47.217    62.844
30.4020     47.761    63.272
30.8442     48.307    63.450
31.2929     48.838    63.373
31.7480     49.346    63.130
32.2098     49.841    62.836
32.6783     50.347    62.554
33.1536     50.878    62.243
33.6359     51.439    61.845
34.1251     52.019    61.352
34.6215     52.609    60.850
35.1250     53.212    60.415
35.6359     53.832    60.047
36.1543     54.465    59.663
36.6802     55.092    59.215
37.2137     55.688    58.744
37.7550     56.256    58.326
38.3041     56.802    57.976
38.8613     57.338    57.605
39.4265     57.865    57.084
40.0000     58.378    56.341
40.5818     58.872    55.358
41.1721     59.345    54.179
41.7710     59.805    52.871
42.3785     60.255    51.462
42.9949     60.694    50.037
43.6203     61.124    48.732
44.2548     61.570    47.640
44.8985     62.045    46.591
45.5515     62.515    45.414
46.2141     62.938    44.266
46.8863     63.333    43.419
47.5683     63.747    42.653
48.2602     64.137    41.508
48.9621     64.424    40.291
49.6743     64.656    39.666
50.3968     64.961    39.422
51.1299     65.326    38.724
51.8736     65.633    37.592
52.6281     65.867    36.711
53.3936     66.105    36.177
54.1702     66.342    35.673
54.9581     66.548    35.246
55.7575     66.736    34.965
56.5685     66.911    34.694
57.3914     67.064    34.452
58.2261     67.205    34.289
59.0730     67.344    34.224
59.9323     67.485    34.339
60.8040     67.635    34.652
61.6884     67.789    35.225
62.5857     67.951    36.042
63.4960     68.102    36.919
64.4196     68.206    37.893
65.3566     68.276    39.066
66.3073     68.337    40.226
67.2717     68.385    41.278
68.2502     68.433    42.299
69.2429     68.499    43.363
70.2501     68.598    44.526
71.2719     68.721    45.808
72.3086     68.851    47.276
73.3603     68.977    48.920
74.4274     69.079    50.736
75.5099     69.160    52.635
76.6083     69.205    54.547
77.7226     69.241    56.611
78.8531     69.312    58.653
80.0000     69.412    60.648
81.1636     69.555    62.668
82.3442     69.716    64.753
83.5419     69.889    67.143
84.7570     70.062    69.786
85.9899     70.205    72.723
87.2406     70.306    75.892
88.5096     70.372    79.184
89.7970     70.414    82.302
91.1031     70.429    85.094
92.4282     70.427    87.656
93.7726     70.432    90.220
95.1366     70.469    93.072
96.5204     70.550    96.349
97.9243     70.667    99.939
99.3486     70.770   103.805
100.794     70.881   107.693
102.260     70.955   111.343
103.747     71.033   114.852
105.256     71.132   118.237
106.787     71.259   121.665
108.340     71.391   125.348
109.916     71.501   129.413
111.515     71.587   133.852
113.137     71.665   138.298
114.783     71.736   142.591
116.452     71.822   146.843
118.146     71.927   151.253
119.865     72.046   155.914
121.608     72.144   160.683
123.377     72.219   165.351
125.171     72.298   169.872
126.992     72.413   174.347
128.839     72.559   179.136
130.713     72.685  -175.724
132.615     72.733  -170.287
134.543     72.738  -164.688
136.500     72.779  -159.200
138.486     72.849  -154.447
140.500     72.916  -148.992
142.544     72.956  -142.791
144.617     72.952  -137.123
146.721     72.973  -131.360
148.855     73.080  -125.288
151.020     73.180  -119.418
153.217     73.188  -113.384
155.445     73.188  -107.240
157.706     73.136  -101.568
160.000     73.016   -94.387
162.327     73.039   -86.477
164.688     73.094   -79.649
167.084     73.210   -72.471
169.514     73.293   -66.055
171.980     73.164   -58.904
174.481     73.029   -51.043
177.019     72.962   -43.114
179.594     72.971   -34.899
182.206     73.037   -26.237
184.856     73.125   -17.258
187.545     73.198    -9.099
190.273     73.279    -0.728
193.041     73.357     7.423
195.849     73.385    15.691
198.697     73.348    24.080
201.587     73.275    32.352
204.520     73.210    41.362
207.494     73.178    50.523
210.512     73.131    60.533
213.574     73.096    69.658
216.681     72.908    79.389
219.833     72.859    89.880
223.030     72.756   100.707
226.274     72.731   112.136
229.565     72.789   123.334
232.905     72.772   134.072
236.292     72.828   144.742
239.729     72.867   155.713
243.216     72.853   166.816
246.754     72.826   177.804
250.343     72.712  -170.120
253.984     72.687  -157.584
257.678     72.786  -145.844
261.426     72.757  -133.902
265.229     72.635  -121.523
269.087     72.445  -109.162
273.001     72.360   -95.445
276.972     72.397   -82.438
281.000     72.371   -68.885
285.088     72.310   -54.896
289.234     72.358   -40.464
293.441     72.339   -27.544
297.709     72.198   -13.508
302.040     72.199     0.019
306.433     71.921    14.329
310.890     71.869    30.762
315.412     71.813    45.451
320.000     71.742    60.680
324.655     71.435    76.197
329.377     71.390    92.189
334.168     71.255   109.217
339.028     71.172   126.444
343.959     71.124   143.174
348.962     70.959   159.558
354.038     70.728   176.513
359.188     70.654  -166.004
364.412     70.461  -148.283
369.713     70.282  -130.940
375.090     69.958  -112.125
380.546     69.937   -92.832
386.081     69.813   -74.250
391.697     69.773   -54.995
397.394     69.676   -35.548
403.175     69.537   -16.431
409.039     69.462     3.507
414.989     69.452    23.631
421.025     69.411    43.955
427.149     69.386    63.846
433.362     69.381    83.984
439.665     69.383   105.203
446.060     69.326   126.344
452.548     69.296   147.584
459.131     69.231   169.328
465.809     69.164  -168.193
472.584     69.074  -145.455
479.458     68.941  -122.640
486.432     68.817   -99.276
493.507     68.654   -75.108
500.686     68.453   -50.335
507.968     68.248   -25.486
515.357     68.006    -0.467
522.853     67.735    25.268
530.458     67.455    51.880
538.174     67.146    78.683
546.002     66.835   105.886
553.943     66.505   133.784
562.001     66.184   162.745
570.175     65.900  -167.382
578.469     65.621  -136.408
586.883     65.392  -105.414
595.419     65.220   -74.112
604.080     65.128   -42.366
612.866     65.094    -9.830
621.780     65.089    23.101
630.824     65.162    56.289
640.000     65.253    89.382
649.309     65.323   121.795
658.753     65.414   154.513
668.335     65.467  -171.849
678.056     65.485  -138.593
687.919     65.464  -104.991
697.925     65.381   -70.929
708.077     65.227   -36.871
718.376     64.985    -2.278
728.825     64.664    33.004
739.426     64.257    69.155
750.181     63.770   106.325
761.093     63.203   144.678
772.163     62.563  -176.179
783.394     61.918  -135.305
794.789     61.239   -91.871
806.349     60.663   -47.532
818.078     60.300    -1.302
829.977     60.117    45.992
842.050     60.226    93.473
854.298     60.493   140.978
866.724     60.846  -173.263
879.330     61.262  -127.108
892.120     61.608   -81.476
905.097     61.862   -35.915
918.262     61.951     9.794
931.618     61.951    55.811
945.169     61.781   102.658
958.917     61.498   150.574
972.864     61.103  -160.029
987.015     60.664  -108.970
1001.37     60.241   -55.131
1015.94     59.951     0.723
1030.71     59.884    57.262
1045.71     60.099   115.049
1060.92     60.547   173.211
1076.35     61.085  -130.070
1092.00     61.642   -74.383
1107.89     62.126   -18.511
1124.00     62.493    37.141
1140.35     62.702    93.014
1156.94     62.754   150.013
1173.77     62.676  -151.990
1190.84     62.495   -92.649
1208.16     62.256   -31.600
1225.73     62.042    31.758
1243.56     61.952    97.270
1261.65     62.043   163.880
1280.00     62.315  -129.304
1298.62     62.717   -62.858
1317.51     63.151     3.744
1336.67     63.534    70.466
1356.11     63.825   137.102
1375.84     63.948  -155.436
1395.85     63.934   -86.696
1416.15     63.793   -16.922
1436.75     63.570    54.335
1457.65     63.307   127.704
1478.85     63.118  -156.630
1500.36     63.011   -79.829
1522.19     63.048    -1.753
1544.33     63.177    77.272
1566.79     63.353   156.910
1589.58     63.514  -122.563
1612.70     63.637   -41.718
1636.16     63.741    40.529
1659.95     63.853   124.141
1684.10     64.010  -151.120
1708.60     64.230   -65.499
1733.45     64.450    20.019
1758.66     64.611   106.652
1784.24     64.626  -166.033
1810.19     64.443   -78.206
1836.52     64.068    12.246
1863.24     63.552   105.573
1890.34     63.078  -157.776
1917.83     62.877   -58.109
1945.73     63.082    42.652
1974.03     63.567   143.337
2002.74     64.055  -117.146
2031.87     64.320   -18.331
2061.43     64.248    81.169
2091.41     63.846  -176.731
2121.83     63.214   -70.665
2152.69     62.614    38.692
2184.01     62.369   151.650
2215.77     62.510   -93.921
2248.00     62.818    19.569
2280.70     62.993   132.538
2313.87     62.916  -113.189
2347.53     62.633     3.894
2381.68     62.318   123.649
2416.32     62.144  -113.778
2451.46     62.126    10.312
2487.12     62.111   135.510
2523.30     61.994   -97.750
2560.00     61.776    31.346
2597.24     61.572   162.268
2635.01     61.434   -64.946
2673.34     61.244    69.287
2712.23     60.866  -154.342
2751.68     60.366   -13.821
2791.70     60.081   130.571
2832.31     60.154   -83.429
2873.50     60.283    61.960
2915.30     60.042  -151.900
2957.70     59.416    -0.940
3000.72     58.936   156.271
3044.37     59.239   -43.853
3088.65     59.875   114.499
3133.58     60.153   -88.160
3179.16     60.020    72.898
3225.40     59.961  -121.077
3272.31     60.241    46.163
3319.91     60.416  -146.270
3368.20     60.191    24.618
3417.19     60.036  -159.555
3466.89     60.422    18.654
3517.32     60.789  -163.970
3568.48     60.506    14.960
3620.39     60.014  -158.933
3673.05     60.279    32.203
3726.47     60.810  -139.039
3780.67     60.627    50.322
3835.67     60.076  -112.912
3891.46     60.284    89.192
3948.06     60.754   -71.312
4005.49     60.461   129.204
4063.75     59.955   -21.999
4122.86     59.942  -170.685
4182.82     59.533    40.618
4243.66     58.668   -98.548
4305.39     59.062   127.403
4368.01     59.552   -12.790
4431.55     58.518  -148.767
4496.01     58.031    89.789
4561.40     59.102   -35.672
4627.75     58.765  -165.434
4695.06     57.602    78.916
4763.35     58.058   -31.933
4832.64     57.968  -147.614
4902.93     57.342   107.290
4974.24     57.836     4.507
5046.60     57.323  -100.049
5120.00     56.804   169.022
5194.47     57.527    75.657
5270.03     56.656   -16.989
5346.68     56.541   -95.146
5424.45     57.069  -179.071
5503.35     56.226   105.413
5583.40     56.996    35.216
5664.61     56.522   -38.894
5747.01     56.072   -95.841
5830.60     57.068  -160.160
5915.41     55.978   143.298
6001.45     56.865    95.011
6088.74     56.318    37.462
6177.30     55.490     0.391
6267.15     55.696   -44.060
6358.31     53.738   -74.597
6450.80     54.155  -102.525
6544.62     51.762  -124.838
6639.82     53.016  -134.505
6736.40     50.966  -156.725
6834.38     50.963  -149.572
6933.79     49.385  -162.266
7034.64     48.875  -139.034
7136.96     47.790  -134.723
7240.77     48.798  -100.661
7346.09     48.049   -83.365
7452.94     50.313   -47.199
7561.35     49.368   -21.329
7671.33     51.563    21.762
7782.91     51.147    57.855
7896.12     52.646   102.049
8010.97     51.970   148.967
8127.49     51.939  -160.823
8245.71     50.469   -92.678
8365.65     49.375   -32.868
8487.33     47.906    53.983
8610.78     44.365   135.119
8736.03     44.016  -116.000
8863.09     43.119    14.181
8992.01     44.978   120.853
9122.80     48.161  -124.313
9255.50     48.034    -8.942
9390.12     48.406   106.065
9526.70     49.032  -117.198
9665.27     47.930    17.138
9805.86     48.281   157.441
9948.49     47.846   -46.456
10093.2     46.281   112.917
10240.0     45.537   -82.887
10388.9     44.986    97.952
10540.1     43.004   -71.141
10693.4     40.976   125.505
10848.9     40.511   -28.188
11006.7     41.178  -166.697
11166.8     39.944    61.509
11329.2     40.112   -66.087
11494.0     39.941   169.582
11661.2     40.760    55.633
11830.8     42.027   -51.448
12002.9     41.199  -156.622
12177.5     39.654   113.521
12354.6     35.961    33.669
12534.3     34.898    -8.341
12716.6     34.914   -67.132
12901.6     35.262   -82.428
13089.2     39.689  -114.458
13279.6     42.118  -148.523
13472.8     44.021  -170.008
13668.8     45.379   170.847
13867.6     45.923   163.913
14069.3     46.601   168.412
14273.9     46.481  -177.151
14481.5     46.566  -149.386
14692.2     46.733  -105.122
14905.9     47.640   -55.512
15122.7     48.080     2.241
15342.7     48.387    69.660
15565.8     47.553   150.358
15792.2     47.423  -111.483
16021.9     47.149    -9.910
16255.0     46.259   107.385
16491.4     45.274  -119.888
16731.3     44.410    25.248
16974.7     43.669  -178.203
17221.6     41.843    -8.803
17472.1     39.968  -178.050
17726.2     38.875    28.937
17984.0     38.966  -108.830
18245.6     39.829   117.978
18511.0     39.935    -4.015
18780.2     39.757  -111.418
19053.4     39.787   154.299
19330.5     39.811    70.837
19611.7     39.326    -0.335
19897.0     38.390   -52.124
20186.4     37.969   -93.493
20480.0     36.516  -123.013
20777.9     34.263  -128.788
21080.1     33.015  -117.357
21386.7     30.025   -90.708
21697.8     27.400   -38.048
22013.4     25.176    28.335
22333.6     24.380   111.598
22658.4     20.966   -56.060
22988.0     17.591   145.447
23322.4     16.773  -149.655
23661.6     20.867   155.624
24005.8     21.486  -157.245
24355.0     23.432   -39.579
24709.2     24.239   161.006
25068.6     24.438    13.631
25433.2     23.531  -121.845
25803.2     20.050    16.973
26178.5     17.185   136.282
26559.3     19.252   151.210
26945.6     20.209   173.801
27337.5     17.037   108.285
27735.2     17.027   -11.984
28138.6     17.344    66.877
28547.9     18.600   127.742
28963.1     17.532  -121.808
29384.4     17.777  -144.190
29811.8     19.763   136.729
30245.4     18.495    83.467
30685.3     20.497   134.437
31131.7     19.275  -172.081
31584.5     18.784  -169.199
32043.9     18.218   130.342
32510.0     15.957   172.765
32982.8     16.836   102.916
33462.6     16.304   -88.566
33949.3     16.691  -141.522
34443.1     17.479    33.083
34944.1     16.304   -44.018
35452.4     16.470    96.753
35968.0     17.519   165.378
36491.2     16.656   -24.968
37022.0     17.724  -117.936
37560.5     17.695    43.352
38106.8     15.910   159.390
38661.1     16.566   124.683
39223.4     17.934    88.513
39793.9     17.375    28.480
