Freq[Hz]     dBSPL  Phase[Deg]
5.00000    -11.762    45.044
5.07273    -11.830    45.675
5.14651    -12.063    46.878
5.22137    -12.751    49.678
5.29732    -13.439    52.479
5.37437    -14.128    55.279
5.45254    -14.816    58.079
5.53185    -15.306    65.428
5.61231    -15.587    77.587
5.69394    -15.868    89.747
5.77676    -16.149   101.906
5.86079    -16.405   113.962
5.94604    -15.205   119.909
6.03252    -14.005   125.855
6.12027    -12.805   131.802
6.20929    -11.605   137.749
6.29961    -10.965   138.691
6.39124    -10.450   138.523
6.48420     -9.934   138.355
6.57851     -9.419   138.187
6.67420     -9.777   137.486
6.77128    -10.277   136.698
6.86977    -10.776   135.910
6.96969    -11.503   136.469
7.07107    -13.956   147.271
7.17392    -16.409   158.072
7.27827    -18.862   168.873
7.38413    -18.428  -172.872
7.49154    -15.763  -148.860
7.60050    -13.098  -124.848
7.71105    -10.614  -105.355
7.82321     -8.928  -105.712
7.93701     -7.243  -106.069
8.05245     -5.557  -106.425
8.16958     -5.275  -108.130
8.28841     -5.045  -109.884
8.40896     -4.815  -111.639
8.53128     -6.464  -108.626
8.65537     -8.356  -104.997
8.78126    -10.248  -101.368
8.90899     -8.853   -63.183
9.03857     -7.243   -22.734
9.17004     -5.399    13.501
9.30342     -1.687    16.186
9.43874      2.025    18.870
9.57603      5.151    20.112
9.71532      7.380    19.149
9.85663      9.608    18.185
10.0000     11.383    16.957
10.1455     13.032    15.656
10.2930     14.605    14.286
10.4427     15.967    12.726
10.5946     17.328    11.165
10.7487     18.559     9.138
10.9051     19.764     7.018
11.0637     20.887     4.554
11.2246     21.923     1.726
11.3879     22.917    -1.227
11.5535     23.752    -4.636
11.7216     24.583    -8.049
11.8921     25.183   -11.700
12.0650     25.783   -15.352
12.2405     26.164   -18.773
12.4186     26.518   -22.164
12.5992     26.689   -24.802
12.7825     26.819   -27.273
12.9684     26.844   -28.437
13.1570     26.844   -29.296
13.3484     26.898   -28.591
13.5426     26.960   -27.632
13.7395     27.258   -25.928
13.9394     27.590   -24.303
14.1421     28.110   -23.495
14.3478     28.629   -23.195
14.5565     29.147   -23.990
14.7683     29.562   -25.390
14.9831     29.896   -27.258
15.2010     30.006   -29.136
15.4221     30.035   -30.786
15.6464     29.871   -31.429
15.8740     29.671   -30.768
16.1049     29.441   -29.066
16.3392     29.452   -25.147
16.5768     29.658   -21.051
16.8179     30.134   -16.816
17.0626     30.875   -14.283
17.3107     31.657   -12.842
17.5625     32.450   -12.727
17.8180     33.118   -13.919
18.0771     33.698   -15.488
18.3401     34.186   -17.342
18.6068     34.561   -19.253
18.8775     34.875   -21.073
19.1521     35.147   -22.813
19.4306     35.379   -24.468
19.7133     35.560   -26.006
20.0000     35.693   -27.341
20.2909     35.787   -28.350
20.5860     35.859   -28.896
20.8855     35.932   -28.842
21.1893     36.079   -28.033
21.4975     36.347   -26.868
21.8102     36.742   -25.722
22.1274     37.248   -24.903
22.4492     37.833   -24.615
22.7758     38.455   -24.910
23.1071     39.084   -25.716
23.4432     39.704   -26.924
23.7841     40.308   -28.476
24.1301     40.882   -30.313
24.4811     41.415   -32.360
24.8372     41.887   -34.470
25.1984     42.295   -36.409
25.5649     42.656   -37.907
25.9368     43.014   -38.773
26.3141     43.430   -39.031
26.6968     43.955   -38.985
27.0851     44.594   -39.105
27.4791     45.310   -39.797
27.8788     46.027   -41.162
28.2843     46.697   -42.975
28.6957     47.302   -44.926
29.1131     47.856   -46.758
29.5365     48.392   -48.365
29.9661     48.940   -49.816
30.4020     49.511   -51.283
30.8442     50.095   -52.942
31.2929     50.669   -54.790
31.7480     51.222   -56.733
32.2098     51.759   -58.657
32.6783     52.298   -60.503
33.1536     52.854   -62.336
33.6359     53.425   -64.240
34.1251     54.003   -66.250
34.6215     54.576   -68.309
35.1250     55.151   -70.363
35.6359     55.732   -72.440
36.1543     56.321   -74.628
36.6802     56.902   -76.979
37.2137     57.454   -79.457
37.7550     57.981   -81.966
38.3041     58.492   -84.486
38.8613     59.002   -87.081
39.4265     59.510   -89.865
40.0000     60.012   -92.890
40.5818     60.500   -96.162
41.1721     60.972   -99.625
41.7710     61.432  -103.211
42.3785     61.882  -106.892
42.9949     62.317  -110.588
43.6203     62.741  -114.173
44.2548     63.175  -117.563
44.8985     63.634  -120.939
45.5515     64.081  -124.479
46.2141     64.477  -128.035
46.8863     64.839  -131.347
47.5683     65.217  -134.648
48.2602     65.566  -138.410
48.9621     65.812  -142.334
49.6743     66.003  -145.764
50.3968     66.273  -148.908
51.1299     66.612  -152.591
51.8736     66.903  -156.768
52.6281     67.136  -160.722
53.3936     67.382  -164.322
54.1702     67.636  -167.856
54.9581     67.859  -171.259
55.7575     68.057  -174.471
56.5685     68.230  -177.657
57.3914     68.366   179.150
58.2261     68.475   175.941
59.0730     68.574   172.677
59.9323     68.677   169.424
60.8040     68.803   166.217
61.6884     68.954   163.176
62.5857     69.138   160.376
63.4960     69.330   157.722
64.4196     69.481   155.303
65.3566     69.590   153.234
66.3073     69.666   151.241
67.2717     69.696   149.129
68.2502     69.696   146.858
69.2429     69.696   144.417
70.2501     69.728   141.829
71.2719     69.799   139.168
72.3086     69.900   136.598
73.3603     70.014   134.212
74.4274     70.112   132.066
75.5099     70.179   130.060
76.6083     70.191   128.050
77.7226     70.174   126.074
78.8531     70.183   123.880
80.0000     70.225   121.433
81.1636     70.329   118.863
82.3442     70.471   116.302
83.5419     70.639   114.062
84.7570     70.807   112.098
85.9899     70.939   110.405
87.2406     71.024   108.861
88.5096     71.077   107.329
89.7970     71.119   105.550
91.1031     71.145   103.452
92.4282     71.158   101.197
93.7726     71.162    99.007
95.1366     71.172    97.070
96.5204     71.204    95.390
97.9243     71.264    93.780
99.3486     71.327    92.224
100.794     71.422    90.588
102.260     71.501    88.750
103.747     71.584    86.876
105.256     71.665    84.917
106.787     71.747    82.887
108.340     71.821    80.870
109.916     71.884    78.983
111.515     71.948    77.341
113.137     72.025    75.727
114.783     72.093    74.032
116.452     72.158    72.277
118.146     72.227    70.522
119.865     72.315    68.831
121.608     72.399    67.169
123.377     72.465    65.453
125.171     72.514    63.603
126.992     72.567    61.526
128.839     72.647    59.421
130.713     72.738    57.397
132.615     72.791    55.651
134.543     72.807    54.084
136.500     72.838    52.380
138.486     72.875    50.540
140.500     72.905    48.610
142.544     72.922    46.720
144.617     72.903    45.032
146.721     72.903    43.465
148.855     72.989    41.505
151.020     73.075    39.350
153.217     73.070    37.427
155.445     73.047    35.635
157.706     72.969    33.312
160.000     72.829    31.793
162.327     72.838    31.041
164.688     72.879    29.902
167.084     72.978    28.437
169.514     73.046    25.551
171.980     72.899    23.424
174.481     72.744    22.636
177.019     72.663    21.865
179.594     72.670    20.744
182.206     72.732    19.498
184.856     72.802    18.545
187.545     72.866    17.352
190.273     72.954    15.778
193.041     73.023    14.089
195.849     73.024    12.355
198.697     72.999     9.943
201.587     72.960     7.737
204.520     72.872     6.411
207.494     72.799     4.810
210.512     72.782     3.309
213.574     72.776     1.344
216.681     72.567     0.531
219.833     72.528    -0.416
223.030     72.456    -1.419
226.274     72.415    -1.864
229.565     72.485    -2.815
232.905     72.512    -4.002
236.292     72.581    -5.174
239.729     72.640    -6.841
243.216     72.652    -8.267
246.754     72.629    -9.859
250.343     72.533   -11.190
253.984     72.547   -11.989
257.678     72.674   -13.499
261.426     72.663   -15.566
265.229     72.574   -17.293
269.087     72.427   -18.971
273.001     72.378   -19.277
276.972     72.448   -20.357
281.000     72.466   -21.617
285.088     72.458   -23.068
289.234     72.556   -24.096
293.441     72.583   -26.566
297.709     72.464   -28.058
302.040     72.511   -30.216
306.433     72.286   -32.228
310.890     72.309   -32.762
315.412     72.285   -34.836
320.000     72.238   -36.877
324.655     72.011   -38.362
329.377     71.973   -39.299
334.168     71.866   -40.914
339.028     71.812   -42.161
343.959     71.783   -44.016
348.962     71.626   -46.174
354.038     71.409   -47.807
359.188     71.318   -49.427
364.412     71.103   -51.699
369.713     70.895   -54.136
375.090     70.515   -55.147
380.546     70.446   -56.455
386.081     70.285   -58.063
391.697     70.150   -59.715
397.394     69.979   -61.785
403.175     69.761   -63.385
409.039     69.613   -64.647
414.989     69.522   -66.261
421.025     69.406   -67.584
427.149     69.329   -69.188
433.362     69.263   -70.398
439.665     69.228   -71.925
446.060     69.164   -73.294
452.548     69.158   -74.647
459.131     69.129   -75.842
465.809     69.116   -77.153
472.584     69.126   -78.277
479.458     69.156   -79.104
486.432     69.151   -80.014
493.507     69.169   -81.119
500.686     69.196   -82.275
507.968     69.219   -83.434
515.357     69.239   -84.749
522.853     69.277   -86.074
530.458     69.301   -87.424
538.174     69.313   -88.797
546.002     69.325   -90.339
553.943     69.344   -91.879
562.001     69.361   -93.454
570.175     69.366   -95.072
578.469     69.373   -96.672
586.883     69.370   -98.317
595.419     69.356  -100.035
604.080     69.354  -101.738
612.866     69.352  -103.504
621.780     69.344  -105.261
630.824     69.352  -106.923
640.000     69.309  -108.650
649.309     69.300  -110.400
658.753     69.286  -112.223
668.335     69.277  -113.954
678.056     69.258  -115.778
687.919     69.238  -117.555
697.925     69.223  -119.317
708.077     69.195  -121.098
718.376     69.186  -122.942
728.825     69.170  -124.715
739.426     69.166  -126.507
750.181     69.169  -128.219
761.093     69.157  -130.037
772.163     69.189  -131.828
783.394     69.202  -133.581
794.789     69.245  -135.514
806.349     69.291  -137.490
818.078     69.373  -139.521
829.977     69.450  -141.651
842.050     69.543  -144.005
854.298     69.629  -146.486
866.724     69.726  -149.160
879.330     69.809  -152.062
892.120     69.879  -155.226
905.097     69.943  -158.600
918.262     69.976  -162.056
931.618     69.976  -165.708
945.169     69.940  -169.528
958.917     69.874  -173.258
972.864     69.739  -177.146
987.015     69.592   179.014
1001.37     69.400   175.341
1015.94     69.159   171.846
1030.71     68.908   168.570
1045.71     68.638   165.629
1060.92     68.368   162.898
1076.35     68.122   160.443
1092.00     67.917   158.234
1107.89     67.746   156.084
1124.00     67.623   153.834
1140.35     67.555   151.314
1156.94     67.492   148.473
1173.77     67.445   145.262
1190.84     67.368   141.515
1208.16     67.247   137.467
1225.73     67.059   133.127
1243.56     66.776   128.605
1261.65     66.406   124.149
1280.00     65.916   119.983
1298.62     65.346   116.207
1317.51     64.692   113.188
1336.67     64.000   111.124
1356.11     63.340   110.145
1375.84     62.761   110.037
1395.85     62.371   110.608
1416.15     62.160   111.371
1436.75     62.095   111.419
1457.65     62.113   110.571
1478.85     62.140   108.722
1500.36     62.109   106.185
1522.19     62.010   103.175
1544.33     61.813   100.180
1566.79     61.543    97.312
1589.58     61.247    94.761
1612.70     60.958    92.668
1636.16     60.723    90.584
1659.95     60.533    88.456
1684.10     60.368    85.753
1708.60     60.179    82.438
1733.45     59.905    78.603
1758.66     59.513    74.429
1784.24     58.997    70.325
1810.19     58.392    67.282
1836.52     57.712    64.885
1863.24     57.170    63.557
1890.34     56.811    62.594
1917.83     56.660    60.581
1945.73     56.670    57.033
1974.03     56.639    50.722
2002.74     56.512    42.549
2031.87     56.165    32.575
2061.43     55.642    20.896
2091.41     55.048     8.451
2121.83     54.446    -5.551
2152.69     54.045   -19.997
2184.01     54.083   -36.055
2215.77     54.564   -52.774
2248.00     55.518   -69.277
2280.70     56.595   -85.100
2313.87     57.743  -100.315
2347.53     58.770  -113.678
2381.68     59.622  -125.504
2416.32     60.398  -135.557
2451.46     61.127  -143.800
2487.12     61.889  -151.175
2523.30     62.696  -158.414
2560.00     63.451  -166.026
2597.24     64.064  -173.910
2635.01     64.453   178.453
2673.34     64.663   171.796
2712.23     64.804   166.621
2751.68     65.044   162.639
2791.70     65.460   158.643
2832.31     65.934   153.762
2873.50     66.295   147.689
2915.30     66.428   141.387
2957.70     66.349   136.047
3000.72     66.218   132.401
3044.37     66.225   129.924
3088.65     66.427   127.315
3133.58     66.671   123.787
3179.16     66.812   119.673
3225.40     66.855   116.066
3272.31     66.933   113.159
3319.91     67.154   110.117
3368.20     67.425   105.848
3417.19     67.554   100.442
3466.89     67.407    94.930
3517.32     67.054    90.618
3568.48     66.712    88.118
3620.39     66.564    86.325
3673.05     66.548    83.759
3726.47     66.444    80.285
3780.67     66.152    77.026
3835.67     65.767    74.944
3891.46     65.454    73.908
3948.06     65.242    73.333
4005.49     65.100    72.849
4063.75     65.019    72.236
4122.86     64.897    71.685
4182.82     64.801    72.401
4243.66     65.060    73.864
4305.39     65.655    72.739
4368.01     65.987    68.346
4431.55     65.818    64.522
4496.01     65.647    63.343
4561.40     65.769    61.897
4627.75     65.732    58.703
4695.06     65.387    57.080
4763.35     65.269    58.065
4832.64     65.589    58.161
4902.93     65.916    55.583
4974.24     65.921    52.233
5046.60     65.808    50.577
5120.00     65.986    49.031
5194.47     66.061    44.620
5270.03     65.545    41.018
5346.68     65.062    41.387
5424.45     64.986    41.971
5503.35     64.907    42.243
5583.40     65.019    43.140
5664.61     65.330    43.221
5747.01     65.850    41.555
5830.60     66.120    36.226
5915.41     65.721    31.909
6001.45     65.367    30.445
6088.74     64.929    29.250
6177.30     64.533    31.930
6267.15     64.906    34.867
6358.31     65.553    34.325
6450.80     65.992    30.683
6544.62     66.138    27.204
6639.82     66.240    22.254
6736.40     65.644    18.399
6834.38     65.504    19.197
6933.79     65.575    15.576
7034.64     65.058    13.457
7136.96     64.819    13.364
7240.77     64.538    12.477
7346.09     64.241    15.656
7452.94     65.083    16.927
7561.35     65.406    12.519
7671.33     65.731     8.865
7782.91     65.492     0.609
7896.12     64.488    -2.871
8010.97     63.612    -3.450
8127.49     62.882     0.478
8245.71     63.153     3.866
8365.65     63.379     4.065
8487.33     63.765     1.837
8610.78     63.677    -1.017
8736.03     63.689    -5.089
8863.09     63.216    -9.176
8992.01     62.455   -13.264
9122.80     61.284   -13.296
9255.50     60.426    -9.730
9390.12     59.854    -3.881
9526.70     60.361     0.345
9665.27     60.253     1.016
9805.86     60.549     1.563
9948.49     60.147     1.280
10093.2     60.258     3.628
10240.0     60.039     5.678
10388.9     60.649     6.853
10540.1     60.847     5.101
10693.4     60.676     2.253
10848.9     60.194     1.599
11006.7     59.838     4.397
11166.8     59.763     7.095
11329.2     59.930     9.151
11494.0     60.123    14.022
11661.2     61.231    13.321
11830.8     61.751    10.053
12002.9     61.381     4.862
12177.5     61.615     8.173
12354.6     62.369     6.370
12534.3     62.735    -3.130
12716.6     62.196    -9.406
12901.6     61.131   -10.745
13089.2     60.763   -12.345
13279.6     60.121   -12.941
13472.8     59.580    -8.135
13668.8     60.233    -8.066
13867.6     60.222   -13.104
14069.3     59.531   -14.959
14273.9     59.010   -14.610
14481.5     59.142   -15.086
14692.2     58.997   -17.727
14905.9     58.381   -21.605
15122.7     57.661   -23.827
15342.7     56.791   -27.117
15565.8     54.939   -27.644
15792.2     53.093   -17.830
16021.9     52.794    -0.588
16255.0     54.706     8.172
16491.4     55.910     5.401
16731.3     56.335     5.371
16974.7     57.275     0.339
17221.6     57.224    -8.597
17472.1     56.165   -14.246
17726.2     55.328   -11.285
17984.0     55.661   -10.212
18245.6     55.551   -14.609
18511.0     55.154   -16.041
18780.2     55.158   -19.246
19053.4     54.503   -26.333
19330.5     53.322   -29.140
19611.7     52.065   -28.573
19897.0     51.846   -23.155
20186.4     52.337   -27.893
20480.0     51.368   -37.002
20777.9     49.848   -40.969
21080.1     48.249   -44.287
21386.7     46.143   -39.643
21697.8     45.903   -37.021
22013.4     44.556   -44.232
22333.6     41.783   -45.684
22658.4     38.505   -38.888
22988.0     35.535   -26.440
23322.4     31.802     3.699
23661.6     33.845    54.214
24005.8     39.606    62.650
24355.0     41.147    54.735
24709.2     42.350    61.146
25068.6     45.011    57.293
25433.2     46.202    46.889
25803.2     47.128    38.518
26178.5     47.631    23.596
26559.3     47.062     9.238
26945.6     45.667    -0.896
27337.5     44.665   -11.846
27735.2     41.858   -21.042
28138.6     39.566   -16.413
28547.9     38.347   -10.698
28963.1     37.381    -2.587
29384.4     37.918    -0.730
29811.8     38.360    -6.621
30245.4     37.366   -20.747
30685.3     35.143   -25.857
31131.7     34.428   -25.948
31584.5     33.370   -32.529
32043.9     32.534   165.226
32510.0     29.122   -74.345
32982.8     22.526  -138.038
33462.6     17.570   -13.694
33949.3     16.002   -96.541
34443.1     17.584   -78.818
34944.1     16.917  -106.445
35452.4     17.570   122.247
35968.0     16.593   164.084
36491.2     17.816   -74.888
37022.0     18.049   -40.674
37560.5     18.587   -90.828
38106.8     20.419    29.096
38661.1     19.018   149.443
39223.4     19.755     0.005
39793.9     21.167  -130.707
