Freq[Hz]     dBSPL  Phase[Deg]
5.00000    -11.831    62.830
5.07273    -11.899    63.660
5.14651    -12.130    65.066
5.22137    -12.815    68.083
5.29732    -13.501    71.100
5.37437    -14.186    74.116
5.45254    -14.872    77.133
5.53185    -15.358    84.708
5.61231    -15.633    97.106
5.69394    -15.908   109.503
5.77676    -16.183   121.901
5.86079    -16.434   134.195
5.94604    -15.226   140.407
6.03252    -14.018   146.618
6.12027    -12.809   152.830
6.20929    -11.601   159.042
6.29961    -10.951   160.275
6.39124    -10.425   160.404
6.48420     -9.899   160.533
6.57851     -9.373   160.662
6.67420     -9.720   160.289
6.77128    -10.207   159.835
6.86977    -10.695   159.381
6.96969    -11.409   160.278
7.07107    -13.849   171.452
7.17392    -16.289  -177.373
7.27827    -18.729  -166.198
7.38413    -18.281  -147.546
7.49154    -15.603  -123.119
7.60050    -12.925   -98.691
7.71105    -10.428   -78.775
7.82321     -8.729   -78.674
7.93701     -7.031   -78.572
8.05245     -5.332   -78.471
8.16958     -5.039   -79.677
8.28841     -4.798   -80.932
8.40896     -4.558   -82.186
8.53128     -6.198   -78.638
8.65537     -8.080   -74.470
8.78126     -9.963   -70.301
8.90899     -8.563   -31.543
9.03857     -6.947     9.481
9.17004     -5.098    46.295
9.30342     -1.384    49.586
9.43874      2.330    52.877
9.57603      5.455    54.735
9.71532      7.681    54.404
9.85663      9.907    54.072
10.0000     11.676    53.491
10.1455     13.317    52.841
10.2930     14.881    52.126
10.4427     16.231    51.229
10.5946     17.580    50.331
10.7487     18.795    48.972
10.9051     19.982    47.521
11.0637     21.086    45.726
11.2246     22.102    43.566
11.3879     23.073    41.279
11.5535     23.884    38.530
11.7216     24.691    35.777
11.8921     25.263    32.771
12.0650     25.836    29.766
12.2405     26.188    26.976
12.4186     26.511    24.214
12.5992     26.652    22.186
12.7825     26.753    20.321
12.9684     26.748    19.746
13.1570     26.718    19.472
13.3484     26.744    20.741
13.5426     26.779    22.261
13.7395     27.053    24.506
13.9394     27.361    26.671
14.1421     27.860    28.005
14.3478     28.361    28.827
14.5565     28.866    28.548
14.7683     29.271    27.662
14.9831     29.598    26.308
15.2010     29.707    24.951
15.4221     29.737    23.827
15.6464     29.581    23.723
15.8740     29.393    24.940
16.1049     29.178    27.210
16.3392     29.210    31.734
16.5768     29.440    36.457
16.8179     29.944    41.346
17.0626     30.719    44.582
17.3107     31.536    46.757
17.5625     32.367    47.643
17.8180     33.075    47.285
18.0771     33.694    46.588
18.3401     34.223    45.646
18.6068     34.639    44.707
18.8775     34.993    43.906
19.1521     35.301    43.226
19.4306     35.567    42.671
19.7133     35.779    42.280
20.0000     35.938    42.127
20.2909     36.054    42.328
20.5860     36.143    43.014
20.8855     36.230    44.320
21.1893     36.384    46.395
21.4975     36.655    48.833
21.8102     37.049    51.253
22.1274     37.552    53.345
22.4492     38.130    54.901
22.7758     38.745    55.867
23.1071     39.367    56.314
23.4432     39.979    56.354
23.7841     40.575    56.045
24.1301     41.145    55.453
24.4811     41.676    54.656
24.8372     42.149    53.806
25.1984     42.561    53.145
25.5649     42.929    52.949
25.9368     43.298    53.414
26.3141     43.726    54.523
26.6968     44.264    55.976
27.0851     44.918    57.308
27.4791     45.649    58.115
27.8788     46.379    58.298
28.2843     47.059    58.078
28.6957     47.670    57.761
29.1131     48.226    57.599
29.5365     48.759    57.689
29.9661     49.298    57.953
30.4020     49.855    58.213
30.8442     50.419    58.280
31.2929     50.970    58.148
31.7480     51.497    57.909
32.2098     52.008    57.671
32.6783     52.521    57.491
33.1536     53.053    57.309
33.6359     53.605    57.048
34.1251     54.168    56.682
34.6215     54.733    56.279
35.1250     55.306    55.904
35.6359     55.892    55.544
36.1543     56.491    55.120
36.6802     57.084    54.587
37.2137     57.653    53.994
37.7550     58.197    53.432
38.3041     58.725    52.930
38.8613     59.248    52.413
39.4265     59.765    51.766
40.0000     60.271    50.924
40.5818     60.758    49.870
41.1721     61.223    48.649
41.7710     61.671    47.317
42.3785     62.105    45.894
42.9949     62.523    44.451
43.6203     62.928    43.116
44.2548     63.347    41.975
44.8985     63.794    40.854
45.5515     64.234    39.589
46.2141     64.629    38.340
46.8863     64.995    37.385
47.5683     65.381    36.506
48.2602     65.740    35.243
48.9621     65.993    33.895
49.6743     66.189    33.115
50.3968     66.458    32.680
51.1299     66.786    31.744
51.8736     67.059    30.327
52.6281     67.268    29.123
53.3936     67.489    28.245
54.1702     67.721    27.407
54.9581     67.931    26.686
55.7575     68.129    26.178
56.5685     68.314    25.760
57.3914     68.473    25.442
58.2261     68.611    25.250
59.0730     68.734    25.165
59.9323     68.851    25.230
60.8040     68.972    25.435
61.6884     69.095    25.833
62.5857     69.234    26.430
63.4960     69.372    27.074
64.4196     69.470    27.846
65.3566     69.540    28.884
66.3073     69.598    29.981
67.2717     69.634    31.026
68.2502     69.657    32.050
69.2429     69.687    33.083
70.2501     69.746    34.148
71.2719     69.829    35.267
72.3086     69.928    36.536
73.3603     70.027    37.988
74.4274     70.108    39.655
75.5099     70.162    41.454
76.6083     70.171    43.286
77.7226     70.159    45.240
78.8531     70.175    47.088
80.0000     70.219    48.782
81.1636     70.315    50.405
82.3442     70.445    52.043
83.5419     70.603    53.990
84.7570     70.773    56.235
85.9899     70.922    58.833
87.2406     71.035    61.728
88.5096     71.117    64.818
89.7970     71.175    67.827
91.1031     71.200    70.616
92.4282     71.193    73.263
93.7726     71.172    75.929
95.1366     71.161    78.805
96.5204     71.187    81.958
97.9243     71.259    85.287
99.3486     71.339    88.843
100.794     71.447    92.494
102.260     71.523    96.055
103.747     71.589    99.604
105.256     71.651   103.046
106.787     71.726   106.428
108.340     71.807   109.926
109.916     71.880   113.732
111.515     71.946   117.947
113.137     72.008   122.265
114.783     72.052   126.491
116.452     72.099   130.648
118.146     72.164   134.878
119.865     72.255   139.310
121.608     72.336   143.895
123.377     72.395   148.479
125.171     72.445   152.971
126.992     72.517   157.364
128.839     72.620   161.962
130.713     72.717   166.852
132.615     72.751   172.087
134.543     72.740   177.586
136.500     72.755  -176.992
138.486     72.794  -172.348
140.500     72.832  -167.075
142.544     72.855  -161.065
144.617     72.839  -155.505
146.721     72.844  -149.799
148.855     72.929  -143.791
151.020     73.005  -138.004
153.217     72.991  -132.048
155.445     72.969  -125.971
157.706     72.893  -120.379
160.000     72.750  -113.303
162.327     72.753  -105.496
164.688     72.792   -98.752
167.084     72.895   -91.638
169.514     72.960   -85.252
171.980     72.804   -78.138
174.481     72.645   -70.375
177.019     72.563   -62.575
179.594     72.561   -54.454
182.206     72.613   -45.881
184.856     72.691   -37.037
187.545     72.768   -28.942
190.273     72.840   -20.554
193.041     72.897   -12.522
195.849     72.936    -4.472
198.697     72.935     3.986
201.587     72.846    12.518
204.520     72.732    21.445
207.494     72.697    30.308
210.512     72.676    40.236
213.574     72.643    49.376
216.681     72.453    58.988
219.833     72.421    69.368
223.030     72.335    80.172
226.274     72.316    91.529
229.565     72.390   102.592
232.905     72.399   113.258
236.292     72.472   123.859
239.729     72.539   134.698
243.216     72.559   145.768
246.754     72.543   156.710
250.343     72.451   168.522
253.984     72.482  -179.096
257.678     72.612  -167.373
261.426     72.604  -155.680
265.229     72.539  -143.613
269.087     72.411  -131.353
273.001     72.356  -117.767
276.972     72.431  -105.109
281.000     72.470   -91.902
285.088     72.476   -78.206
289.234     72.582   -64.097
293.441     72.631   -51.579
297.709     72.559   -37.802
302.040     72.590   -24.704
306.433     72.379   -11.094
310.890     72.417     4.787
315.412     72.424    19.004
320.000     72.397    33.487
324.655     72.177    48.229
329.377     72.185    63.624
334.168     72.101    79.733
339.028     72.071    96.077
343.959     72.074   111.830
348.962     71.943   127.297
354.038     71.750   143.202
359.188     71.689   159.805
364.412     71.492   176.285
369.713     71.325  -167.408
375.090     70.979  -149.598
380.546     70.920  -131.450
386.081     70.780  -113.836
391.697     70.672   -95.456
397.394     70.510   -76.985
403.175     70.312   -58.640
409.039     70.158   -39.334
414.989     70.070   -19.889
421.025     69.955     0.087
427.149     69.841    19.545
433.362     69.764    39.429
439.665     69.700    60.347
446.060     69.598    81.399
452.548     69.536   102.460
459.131     69.476   124.262
465.809     69.405   146.912
472.584     69.343   169.625
479.458     69.268  -167.387
486.432     69.202  -143.955
493.507     69.138  -119.789
500.686     69.075   -95.077
507.968     68.999   -70.280
515.357     68.923   -45.583
522.853     68.832   -20.318
530.458     68.758     5.620
538.174     68.663    31.526
546.002     68.574    57.448
553.943     68.467    84.075
562.001     68.368   111.182
570.175     68.253   139.068
578.469     68.147   167.554
586.883     68.025  -163.787
595.419     67.899  -135.258
604.080     67.775  -105.979
612.866     67.659   -76.069
621.780     67.536   -45.474
630.824     67.414   -14.090
640.000     67.286    17.132
649.309     67.171    48.536
658.753     67.052    80.369
668.335     66.957   113.643
678.056     66.845   146.872
687.919     66.752  -179.319
697.925     66.642  -144.729
708.077     66.540  -110.390
718.376     66.441   -75.194
728.825     66.306   -39.494
739.426     66.194    -3.285
750.181     66.059    33.689
761.093     65.939    71.235
772.163     65.801   109.079
783.394     65.633   147.380
794.789     65.480  -173.011
806.349     65.336  -133.262
818.078     65.197   -92.699
829.977     65.042   -51.384
842.050     64.896    -9.556
854.298     64.787    33.075
866.724     64.674    75.677
879.330     64.596   119.506
892.120     64.527   163.954
905.097     64.461  -151.085
918.262     64.396  -105.617
931.618     64.329   -59.669
945.169     64.249   -13.269
958.917     64.154    33.784
972.864     64.013    81.300
987.015     63.861   129.514
1001.37     63.644   179.107
1015.94     63.415  -130.542
1030.71     63.140   -79.771
1045.71     62.838   -27.555
1060.92     62.542    26.201
1076.35     62.306    80.683
1092.00     62.060   136.065
1107.89     61.929  -167.027
1124.00     61.842  -109.366
1140.35     61.855   -51.157
1156.94     61.930     8.019
1173.77     62.038    67.433
1190.84     62.193   126.937
1208.16     62.309  -173.230
1225.73     62.421  -112.524
1243.56     62.480   -50.859
1261.65     62.511    11.203
1280.00     62.496    73.927
1298.62     62.428   137.203
1317.51     62.354  -158.207
1336.67     62.231   -92.142
1356.11     62.078   -25.416
1375.84     61.905    42.624
1395.85     61.685   111.940
1416.15     61.462  -177.830
1436.75     61.189  -106.823
1457.65     60.888   -34.120
1478.85     60.574    40.216
1500.36     60.274   115.771
1522.19     60.019  -166.910
1544.33     59.887   -87.916
1566.79     59.845    -7.425
1589.58     59.946    73.764
1612.70     60.117   155.195
1636.16     60.321  -123.045
1659.95     60.501   -40.966
1684.10     60.613    41.782
1708.60     60.637   125.082
1733.45     60.566  -151.076
1758.66     60.361   -65.390
1784.24     60.077    21.676
1810.19     59.725   109.825
1836.52     59.314  -159.589
1863.24     58.936   -67.500
1890.34     58.615    26.178
1917.83     58.377   121.006
1945.73     58.203  -143.716
1974.03     58.036   -47.393
2002.74     57.843    48.564
2031.87     57.532   144.906
2061.43     57.085  -118.657
2091.41     56.423   -21.071
2121.83     55.643    77.739
2152.69     54.815   177.154
2184.01     54.032   -81.926
2215.77     53.446    20.441
2248.00     53.146   122.759
2280.70     53.213  -135.025
2313.87     53.492   -31.839
2347.53     53.906    72.885
2381.68     54.334  -179.956
2416.32     54.671   -68.891
2451.46     54.976    46.327
2487.12     55.330   166.004
2523.30     55.867   -71.050
2560.00     56.475    54.649
2597.24     57.023  -178.632
2635.01     57.461   -49.746
2673.34     57.747    82.335
2712.23     58.057  -142.328
2751.68     58.516    -3.456
2791.70     59.143   136.636
2832.31     59.732   -82.695
2873.50     60.119    59.063
2915.30     60.220  -156.667
2957.70     60.179    -8.401
3000.72     60.218   143.577
3044.37     60.458   -62.135
3088.65     60.837    93.797
3133.58     61.161  -109.372
3179.16     61.328    49.762
3225.40     61.365  -148.076
3272.31     61.398    16.839
3319.91     61.517  -175.455
3368.20     61.717    -6.004
3417.19     61.831   164.107
3466.89     61.651   -23.884
3517.32     61.116   152.101
3568.48     60.426   -27.360
3620.39     59.912   157.911
3673.05     59.674   -13.708
3726.47     59.417   175.980
3780.67     58.940     8.182
3835.67     58.281  -155.665
3891.46     57.619    45.586
3948.06     57.067  -108.785
4005.49     56.900   100.911
4063.75     57.055   -47.602
4122.86     56.967   164.339
4182.82     56.554    22.009
4243.66     56.787  -113.333
4305.39     57.674   109.659
4368.01     58.068   -28.764
4431.55     57.863  -161.773
4496.01     57.971    71.674
4561.40     58.475   -53.828
4627.75     58.631  -178.322
4695.06     58.491    62.823
4763.35     58.615   -50.533
4832.64     59.085  -162.205
4902.93     59.438    87.276
4974.24     59.358   -19.628
5046.60     59.273  -120.980
5120.00     59.416   140.487
5194.47     59.220    44.094
5270.03     58.669   -46.648
5346.68     58.218  -131.541
5424.45     57.915   149.206
5503.35     58.020    73.679
5583.40     57.912    -1.161
5664.61     57.361   -68.056
5747.01     57.633  -130.278
5830.60     57.609   165.765
5915.41     56.927   110.405
6001.45     56.510    60.293
6088.74     55.869    14.919
6177.30     55.537   -21.177
6267.15     55.680   -52.639
6358.31     56.553   -81.860
6450.80     56.994  -111.828
6544.62     57.302  -135.005
6639.82     57.664  -156.932
6736.40     57.235  -171.666
6834.38     57.354  -179.477
6933.79     57.415   174.297
7034.64     56.852   172.771
7136.96     56.109  -179.008
7240.77     55.650  -166.655
7346.09     54.747  -142.388
7452.94     55.279  -115.692
7561.35     55.033   -85.081
7671.33     55.402   -49.218
7782.91     55.153   -10.884
7896.12     54.412    34.442
8010.97     53.730    90.916
8127.49     53.133   155.474
8245.71     54.003  -132.112
8365.65     54.362   -62.184
8487.33     54.867    13.176
8610.78     54.580    94.306
8736.03     54.113  -179.344
8863.09     53.402   -80.946
8992.01     52.612    22.458
9122.80     52.287   135.952
9255.50     51.903  -104.997
9390.12     51.248    21.290
9526.70     51.145   156.567
9665.27     50.550   -61.124
9805.86     50.572    89.260
9948.49     50.718  -114.628
10093.2     51.045    48.867
10240.0     50.897  -140.681
10388.9     51.340    36.005
10540.1     51.523  -141.038
10693.4     51.176    49.151
10848.9     50.370  -110.834
11006.7     49.742   102.778
11166.8     49.871   -34.516
11329.2     50.374  -166.242
11494.0     50.500    71.564
11661.2     51.562   -48.443
11830.8     51.682  -160.572
12002.9     51.258    95.486
12177.5     50.794     5.939
12354.6     50.773   -72.383
12534.3     51.396  -150.126
12716.6     51.055   139.897
12901.6     49.254    83.250
13089.2     48.360    45.226
13279.6     48.479    15.630
13472.8     48.500    -8.164
13668.8     48.169   -25.891
13867.6     47.418   -27.642
14069.3     46.998   -18.455
14273.9     46.424    -1.356
14481.5     45.933    29.867
14692.2     45.777    77.217
14905.9     46.372   129.478
15122.7     46.613  -171.916
15342.7     46.296   -99.118
15565.8     46.087   -13.439
15792.2     45.644    82.019
16021.9     45.497  -171.324
16255.0     44.456   -49.356
16491.4     44.828    90.286
16731.3     44.642  -128.704
16974.7     44.580    31.695
17221.6     44.719  -160.933
17472.1     44.232    18.763
17726.2     43.690  -144.135
17984.0     43.671    65.443
18245.6     42.942   -75.335
18511.0     41.977   163.472
18780.2     41.645    53.749
19053.4     41.011   -42.695
19330.5     40.059  -128.373
19611.7     38.831   164.903
19897.0     37.805   117.870
20186.4     37.032    77.244
20480.0     34.626    57.876
20777.9     33.690    58.816
21080.1     31.625    67.337
21386.7     29.534   116.319
21697.8     31.086   172.271
22013.4     31.665  -137.794
22333.6     30.471   -50.879
22658.4     31.291    50.736
22988.0     32.369   152.398
23322.4     30.850   -93.874
23661.6     27.047    61.194
24005.8     29.029  -106.340
24355.0     29.620    70.028
24709.2     28.463   -88.079
25068.6     28.948   139.008
25433.2     29.538    14.638
25803.2     30.358   -88.880
26178.5     31.976   176.091
26559.3     31.725    96.655
26945.6     30.944    38.517
27337.5     29.599     0.624
27735.2     26.402   -13.217
28138.6     24.648   154.435
28547.9     20.590   129.673
28963.1     18.765    42.699
29384.4     19.640    18.135
29811.8     19.908   116.201
30245.4     19.892   -26.988
30685.3     18.247   115.721
31131.7     17.970   136.016
31584.5     18.263    42.572
32043.9     20.285  -126.950
32510.0     18.253     8.992
32982.8     17.994   -19.798
33462.6     18.927   -25.636
33949.3     17.165   127.856
34443.1     16.870  -106.312
34944.1     18.324  -174.908
35452.4     17.680    60.191
35968.0     18.819   -96.563
36491.2     17.714   -97.353
37022.0     18.018   -43.986
37560.5     17.659   -61.561
38106.8     18.175  -129.851
38661.1     18.175    60.481
39223.4     17.997  -155.789
39793.9     18.789   -85.273
