Freq[Hz]     dBSPL  Phase[Deg]
5.00000    -11.997    63.380
5.07273    -12.063    64.268
5.14651    -12.293    65.734
5.22137    -12.978    68.816
5.29732    -13.663    71.898
5.37437    -14.348    74.979
5.45254    -15.034    78.061
5.53185    -15.521    85.704
5.61231    -15.798    98.170
5.69394    -16.075   110.637
5.77676    -16.352   123.104
5.86079    -16.604   135.467
5.94604    -15.400   141.749
6.03252    -14.196   148.031
6.12027    -12.992   154.312
6.20929    -11.788   160.594
6.29961    -11.144   161.895
6.39124    -10.624   162.091
6.48420    -10.104   162.288
6.57851     -9.585   162.484
6.67420     -9.939   162.174
6.77128    -10.435   161.781
6.86977    -10.931   161.388
6.96969    -11.654   162.345
7.07107    -14.103   173.571
7.17392    -16.553  -175.202
7.27827    -19.003  -163.976
7.38413    -18.567  -145.279
7.49154    -15.900  -120.812
7.60050    -13.233   -96.345
7.71105    -10.748   -76.391
7.82321     -9.063   -76.265
7.93701     -7.377   -76.138
8.05245     -5.692   -76.011
8.16958     -5.412   -77.207
8.28841     -5.184   -78.452
8.40896     -4.957   -79.697
8.53128     -6.611   -76.153
8.65537     -8.508   -71.992
8.78126    -10.404   -67.830
8.90899     -9.018   -29.095
9.03857     -7.416    11.906
9.17004     -5.580    48.693
9.30342     -1.879    51.944
9.43874      1.822    55.195
9.57603      4.935    57.006
9.71532      7.150    56.618
9.85663      9.364    56.230
10.0000     11.123    55.581
10.1455     12.754    54.859
10.2930     14.309    54.068
10.4427     15.651    53.086
10.5946     16.993    52.104
10.7487     18.201    50.650
10.9051     19.383    49.102
11.0637     20.483    47.205
11.2246     21.497    44.940
11.3879     22.467    42.546
11.5535     23.278    39.685
11.7216     24.085    36.820
11.8921     24.662    33.700
12.0650     25.239    30.580
12.2405     25.599    27.676
12.4186     25.931    24.800
12.5992     26.083    22.664
12.7825     26.195    20.692
12.9684     26.205    20.018
13.1570     26.191    19.647
13.3484     26.236    20.832
13.5426     26.290    22.271
13.7395     26.587    24.454
13.9394     26.918    26.560
14.1421     27.443    27.858
14.3478     27.970    28.653
14.5565     28.502    28.366
14.7683     28.935    27.490
14.9831     29.292    26.160
15.2010     29.431    24.855
15.4221     29.489    23.794
15.6464     29.362    23.781
15.8740     29.202    25.107
16.1049     29.016    27.502
16.3392     29.075    32.181
16.5768     29.330    37.072
16.8179     29.857    42.148
17.0626     30.650    45.594
17.3107     31.486    47.991
17.5625     32.332    49.112
17.8180     33.051    49.005
18.0771     33.679    48.569
18.3401     34.213    47.895
18.6068     34.629    47.231
18.8775     34.979    46.708
19.1521     35.280    46.306
19.4306     35.535    46.026
19.7133     35.730    45.903
20.0000     35.868    46.007
20.2909     35.961    46.453
20.5860     36.022    47.368
20.8855     36.077    48.883
21.1893     36.196    51.139
21.4975     36.428    53.729
21.8102     36.782    56.272
22.1274     37.243    58.453
22.4492     37.778    60.063
22.7758     38.350    61.047
23.1071     38.930    61.476
23.4432     39.502    61.462
23.7841     40.061    61.062
24.1301     40.597    60.349
24.4811     41.099    59.405
24.8372     41.547    58.389
25.1984     41.940    57.547
25.5649     42.294    57.161
25.9368     42.655    57.436
26.3141     43.081    58.360
26.6968     43.621    59.641
27.0851     44.281    60.817
27.4791     45.022    61.490
27.8788     45.766    61.566
28.2843     46.461    61.267
28.6957     47.089    60.899
29.1131     47.662    60.712
29.5365     48.210    60.802
29.9661     48.763    61.089
30.4020     49.332    61.387
30.8442     49.905    61.505
31.2929     50.462    61.431
31.7480     50.993    61.247
32.2098     51.506    61.062
32.6783     52.020    60.924
33.1536     52.551    60.774
33.6359     53.102    60.536
34.1251     53.665    60.181
34.6215     54.232    59.783
35.1250     54.806    59.411
35.6359     55.396    59.055
36.1543     56.000    58.640
36.6802     56.600    58.125
37.2137     57.175    57.559
37.7550     57.724    57.031
38.3041     58.256    56.569
38.8613     58.782    56.092
39.4265     59.302    55.479
40.0000     59.809    54.661
40.5818     60.297    53.618
41.1721     60.765    52.391
41.7710     61.218    51.042
42.3785     61.662    49.593
42.9949     62.094    48.129
43.6203     62.519    46.790
44.2548     62.961    45.676
44.8985     63.435    44.629
45.5515     63.902    43.488
46.2141     64.320    42.418
46.8863     64.705    41.690
47.5683     65.099    41.074
48.2602     65.458    40.087
48.9621     65.699    39.003
49.6743     65.873    38.448
50.3968     66.112    38.175
51.1299     66.406    37.322
51.8736     66.647    35.902
52.6281     66.830    34.616
53.3936     67.034    33.600
54.1702     67.264    32.597
54.9581     67.483    31.723
55.7575     67.702    31.108
56.5685     67.915    30.650
57.3914     68.103    30.365
58.2261     68.266    30.270
59.0730     68.408    30.326
59.9323     68.535    30.539
60.8040     68.659    30.873
61.6884     68.782    31.357
62.5857     68.921    31.992
63.4960     69.067    32.640
64.4196     69.181    33.415
65.3566     69.276    34.495
66.3073     69.365    35.706
67.2717     69.429    36.956
68.2502     69.469    38.259
69.2429     69.501    39.597
70.2501     69.542    40.929
71.2719     69.597    42.209
72.3086     69.665    43.493
73.3603     69.746    44.822
74.4274     69.832    46.286
75.5099     69.920    47.907
76.6083     69.986    49.695
77.7226     70.039    51.809
78.8531     70.110    54.023
80.0000     70.184    56.216
81.1636     70.280    58.359
82.3442     70.383    60.426
83.5419     70.505    62.660
84.7570     70.642    65.070
85.9899     70.768    67.788
87.2406     70.861    70.817
88.5096     70.917    74.057
89.7970     70.937    77.160
91.1031     70.919    79.903
92.4282     70.884    82.334
93.7726     70.864    84.707
95.1366     70.889    87.382
96.5204     70.966    90.559
97.9243     71.072    94.122
99.3486     71.153    97.962
100.794     71.235   101.754
102.260     71.288   105.224
103.747     71.365   108.553
105.256     71.472   111.867
106.787     71.603   115.365
108.340     71.719   119.172
109.916     71.796   123.287
111.515     71.849   127.649
113.137     71.911   131.973
114.783     71.980   136.225
116.452     72.057   140.558
118.146     72.134   145.071
119.865     72.212   149.724
121.608     72.278   154.356
123.377     72.343   158.878
125.171     72.424   163.367
126.992     72.532   167.920
128.839     72.655   172.785
130.713     72.753   177.926
132.615     72.783  -176.681
134.543     72.775  -171.095
136.500     72.804  -165.574
138.486     72.859  -160.778
140.500     72.908  -155.278
142.544     72.928  -149.027
144.617     72.903  -143.321
146.721     72.901  -137.553
148.855     72.992  -131.499
151.020     73.083  -125.611
153.217     73.080  -119.495
155.445     73.059  -113.268
157.706     72.985  -107.574
160.000     72.851  -100.398
162.327     72.863   -92.453
164.688     72.907   -85.589
167.084     73.018   -78.400
169.514     73.108   -71.865
171.980     72.963   -64.454
174.481     72.785   -56.516
177.019     72.705   -48.777
179.594     72.758   -40.544
182.206     72.836   -31.302
184.856     72.835   -21.942
187.545     72.838   -14.092
190.273     72.940    -6.058
193.041     73.050     2.174
195.849     73.082    10.512
198.697     73.081    18.994
201.587     73.026    27.732
204.520     72.910    37.082
207.494     72.841    46.148
210.512     72.808    56.127
213.574     72.777    65.409
216.681     72.583    75.199
219.833     72.542    85.755
223.030     72.443    96.724
226.274     72.413   108.197
229.565     72.486   119.357
232.905     72.503   130.171
236.292     72.581   141.069
239.729     72.614   152.209
243.216     72.606   163.211
246.754     72.637   174.206
250.343     72.561  -173.375
253.984     72.539  -160.654
257.678     72.654  -148.821
261.426     72.637  -136.863
265.229     72.564  -124.509
269.087     72.410  -111.911
273.001     72.333   -98.159
276.972     72.406   -85.210
281.000     72.426   -71.705
285.088     72.427   -57.653
289.234     72.512   -43.128
293.441     72.540   -30.236
297.709     72.441   -16.109
302.040     72.459    -2.669
306.433     72.228    11.354
310.890     72.254    27.599
315.412     72.259    42.309
320.000     72.212    57.323
324.655     71.971    72.530
329.377     71.963    88.340
334.168     71.886   104.941
339.028     71.850   121.902
343.959     71.848   138.176
348.962     71.726   154.183
354.038     71.537   170.705
359.188     71.494  -172.154
364.412     71.308  -154.901
369.713     71.146  -138.079
375.090     70.821  -119.664
380.546     70.796  -100.975
386.081     70.672   -82.761
391.697     70.626   -63.954
397.394     70.490   -44.717
403.175     70.331   -26.047
409.039     70.226    -6.261
414.989     70.188    13.665
421.025     70.111    33.948
427.149     70.051    53.744
433.362     70.016    73.924
439.665     69.998    95.053
446.060     69.947   116.276
452.548     69.934   137.729
459.131     69.882   159.688
465.809     69.837  -177.490
472.584     69.776  -154.643
479.458     69.720  -131.569
486.432     69.657  -107.883
493.507     69.560   -83.543
500.686     69.478   -58.680
507.968     69.368   -33.787
515.357     69.277    -8.841
522.853     69.152    16.804
530.458     69.018    43.087
538.174     68.873    69.381
546.002     68.749    95.755
553.943     68.592   122.958
562.001     68.444   150.795
570.175     68.288   179.350
578.469     68.114  -151.294
586.883     67.979  -121.921
595.419     67.835   -92.423
604.080     67.698   -62.284
612.866     67.586   -31.382
621.780     67.482     0.087
630.824     67.390    32.341
640.000     67.316    64.451
649.309     67.251    96.560
658.753     67.201   129.249
668.335     67.144   163.098
678.056     67.098  -163.113
687.919     67.033  -128.772
697.925     66.957   -93.973
708.077     66.892   -59.237
718.376     66.795   -23.817
728.825     66.676    12.080
739.426     66.550    48.746
750.181     66.399    86.071
761.093     66.221   124.162
772.163     66.020   162.312
783.394     65.834  -158.721
794.789     65.633  -118.381
806.349     65.440   -77.645
818.078     65.256   -36.271
829.977     65.088     5.929
842.050     64.965    48.859
854.298     64.845    92.357
866.724     64.787   135.813
879.330     64.724  -179.525
892.120     64.695  -134.535
905.097     64.668   -88.926
918.262     64.615   -42.926
931.618     64.537     3.514
945.169     64.442    50.494
958.917     64.294    98.188
972.864     64.114   146.450
987.015     63.908  -164.331
1001.37     63.647  -113.653
1015.94     63.406   -61.915
1030.71     63.160    -9.524
1045.71     62.940    44.228
1060.92     62.798    99.772
1076.35     62.723   155.306
1092.00     62.746  -148.617
1107.89     62.855   -91.499
1124.00     62.989   -34.173
1140.35     63.153    23.243
1156.94     63.305    81.382
1173.77     63.432   139.731
1190.84     63.489  -161.587
1208.16     63.497  -102.482
1225.73     63.438   -42.130
1243.56     63.311    19.560
1261.65     63.133    82.134
1280.00     62.925   145.751
1298.62     62.671  -149.737
1317.51     62.449   -83.543
1336.67     62.242   -15.603
1356.11     62.078    53.205
1375.84     61.978   123.442
1395.85     61.947  -165.067
1416.15     61.965   -93.080
1436.75     62.021   -20.820
1457.65     62.102    52.291
1478.85     62.187   126.211
1500.36     62.244  -159.501
1522.19     62.234   -84.356
1544.33     62.164    -8.066
1566.79     62.022    69.313
1589.58     61.810   148.407
1612.70     61.539  -131.582
1636.16     61.245   -49.781
1659.95     60.991    33.799
1684.10     60.767   119.026
1708.60     60.641  -154.393
1733.45     60.537   -67.491
1758.66     60.473    20.834
1784.24     60.367   110.135
1810.19     60.198  -160.193
1836.52     59.969   -68.172
1863.24     59.689    25.493
1890.34     59.461   120.963
1917.83     59.316  -141.845
1945.73     59.245   -43.758
1974.03     59.274    55.754
2002.74     59.267   155.871
2031.87     59.189  -103.141
2061.43     59.036    -0.892
2091.41     58.832   103.702
2121.83     58.665  -149.386
2152.69     58.621   -41.644
2184.01     58.672    67.424
2215.77     58.763   177.437
2248.00     58.789   -72.092
2280.70     58.701    39.099
2313.87     58.499   152.076
2347.53     58.266   -92.512
2381.68     58.005    24.338
2416.32     57.831   143.124
2451.46     57.655   -96.500
2487.12     57.474    25.238
2523.30     57.258   148.636
2560.00     57.018   -86.237
2597.24     56.754    40.034
2635.01     56.501   167.951
2673.34     56.172   -62.442
2712.23     55.806    69.440
2751.68     55.460  -155.240
2791.70     55.339   -17.458
2832.31     55.547   121.693
2873.50     55.891   -99.438
2915.30     56.174    39.477
2957.70     56.199  -179.917
3000.72     56.063   -36.407
3044.37     56.007   110.648
3088.65     56.205   -99.279
3133.58     56.611    51.314
3179.16     56.923  -157.196
3225.40     56.961    -3.369
3272.31     56.831   154.037
3319.91     56.747   -44.041
3368.20     56.928   120.497
3417.19     57.136   -74.410
3466.89     57.100    92.519
3517.32     56.798   -95.856
3568.48     56.535    79.960
3620.39     56.559  -100.875
3673.05     56.662    80.178
3726.47     56.594   -97.317
3780.67     56.348    88.751
3835.67     56.057   -81.270
3891.46     55.867   112.230
3948.06     55.804   -51.348
4005.49     55.835   147.283
4063.75     55.903   -11.765
4122.86     55.716  -169.366
4182.82     55.184    36.988
4243.66     54.809  -110.057
4305.39     54.939   104.635
4368.01     55.008   -41.071
4431.55     54.511   175.262
4496.01     53.661    38.059
4561.40     53.137   -93.548
4627.75     53.002   135.695
4695.06     52.396     5.506
4763.35     51.088  -119.877
4832.64     49.814   122.984
4902.93     49.066     7.798
4974.24     47.577  -109.295
5046.60     44.450   141.381
5120.00     41.650    46.963
5194.47     38.830   -53.462
5270.03     25.011  -125.251
5346.68     31.731   -92.840
5424.45     40.473   177.662
5503.35     44.686    86.760
5583.40     46.280    -3.670
5664.61     46.945   -81.481
5747.01     48.119  -156.618
5830.60     47.969   128.391
5915.41     47.478    68.251
6001.45     47.944     8.461
6088.74     47.124   -49.088
6177.30     47.074   -92.561
6267.15     47.179  -138.994
6358.31     46.925  -176.253
6450.80     47.411   146.260
6544.62     46.653   114.999
6639.82     47.256    92.952
6736.40     47.185    69.232
6834.38     47.746    56.968
6933.79     48.774    37.719
7034.64     48.247    24.153
7136.96     48.002    18.182
7240.77     47.456    15.958
7346.09     46.513    20.231
7452.94     45.759    32.422
7561.35     45.456    42.586
7671.33     43.666    59.580
7782.91     43.004    79.142
7896.12     40.281    96.507
8010.97     38.350   126.285
8127.49     34.626   157.911
8245.71     32.337  -160.737
8365.65     30.917   -91.614
8487.33     34.061   -33.986
8610.78     36.778    36.553
8736.03     40.214    90.009
8863.09     41.474   164.145
8992.01     42.701  -125.254
9122.80     42.962   -34.504
9255.50     43.229    54.820
9390.12     43.054   162.643
9526.70     42.589   -85.389
9665.27     41.931    29.253
9805.86     40.572   157.953
9948.49     37.900   -75.033
10093.2     36.610    61.213
10240.0     31.991  -172.334
10388.9     30.117   -44.977
10540.1     30.253    81.158
10693.4     31.519  -127.948
10848.9     35.685    41.901
11006.7     37.205  -139.905
11166.8     37.826    58.044
11329.2     38.415   -91.933
11494.0     39.687   132.636
11661.2     39.940     7.934
11830.8     40.684  -113.819
12002.9     41.641   129.458
12177.5     41.517    12.988
12354.6     41.620   -88.577
12534.3     42.657   176.508
12716.6     44.008    84.140
12901.6     44.777    -1.343
13089.2     44.219   -76.929
13279.6     42.714  -137.633
13472.8     40.397   174.644
13668.8     38.829   132.035
13867.6     36.330    85.136
14069.3     33.011    27.837
14273.9     33.108   -24.701
14481.5     33.679   -52.143
14692.2     35.910   -48.043
14905.9     38.857   -24.117
15122.7     40.864    -3.861
15342.7     40.426    29.306
15565.8     39.614    76.285
15792.2     37.856   128.362
16021.9     35.422  -159.539
16255.0     36.126   -76.451
16491.4     34.728    11.823
16731.3     29.547   129.046
16974.7     22.990   -47.372
17221.6     24.121   150.570
17472.1     22.618   -18.192
17726.2     21.468    10.961
17984.0     28.858    70.776
18245.6     29.630   -96.458
18511.0     28.484   112.115
18780.2     24.053   -20.577
19053.4     23.805    84.082
19330.5     23.472   143.944
19611.7     23.551    70.832
19897.0     23.955    17.752
20186.4     22.946   -26.886
20480.0     22.846   -55.324
20777.9     22.486   -75.989
21080.1     24.401  -103.710
21386.7     23.067   -24.401
21697.8     22.986  -105.162
22013.4     22.747    76.499
22333.6     23.601   -37.041
22658.4     22.304    71.941
22988.0     15.874    72.601
23322.4     13.755  -149.327
23661.6     15.799   -24.246
24005.8     16.546    43.401
24355.0     15.751    68.394
24709.2     15.152    -2.584
25068.6     17.029   -37.462
25433.2     16.813  -161.453
25803.2     20.741    58.732
26178.5     17.917   -37.847
26559.3     16.680  -113.090
26945.6     17.168   155.539
27337.5     18.494   172.598
27735.2     17.296   121.844
28138.6     22.138    53.899
28547.9     20.542   125.839
28963.1     19.379   119.454
29384.4     16.745  -167.575
29811.8     18.414  -137.276
30245.4     17.967   110.487
30685.3     17.590   166.378
31131.7     15.472   149.429
31584.5     16.016   156.995
32043.9     16.861   171.568
32510.0     16.466  -107.859
32982.8     17.659   -93.939
33462.6     16.551  -124.686
33949.3     17.176    25.534
34443.1     14.961  -142.444
34944.1     16.954    12.417
35452.4     17.227   -65.136
35968.0     16.982  -168.539
36491.2     17.705  -159.356
37022.0     17.291   -42.074
37560.5     18.050   -30.394
38106.8     18.747   -81.119
38661.1     17.783  -146.401
39223.4     17.565  -116.267
39793.9     18.006  -178.359
