Freq[Hz]     dBSPL  Phase[Deg]
5.00000    -34.518  -161.425
5.07273    -33.639  -158.146
5.14651    -32.810  -156.433
5.22137    -32.221  -158.772
5.29732    -31.632  -161.112
5.37437    -31.044  -163.452
5.45254    -30.398  -165.807
5.53185    -30.037  -168.865
5.61231    -29.984  -172.665
5.69394    -29.931  -176.465
5.77676    -29.837   179.830
5.86079    -29.740   176.185
5.94604    -30.538   173.532
6.03252    -31.335   170.879
6.12027    -32.099   168.403
6.20929    -32.852   165.993
6.29961    -34.206   178.522
6.39124    -35.692  -165.635
6.48420    -37.152  -149.508
6.57851    -38.611  -133.376
6.67420    -36.422  -124.338
6.77128    -33.633  -116.324
6.86977    -30.837  -108.144
6.96969    -28.211  -101.382
7.07107    -26.873  -105.394
7.17392    -25.533  -109.147
7.27827    -24.194  -112.900
7.38413    -23.428  -117.690
7.49154    -23.111  -123.077
7.60050    -22.795  -128.423
7.71105    -22.727  -133.891
7.82321    -23.761  -139.734
7.93701    -24.797  -145.524
8.05245    -25.833  -151.315
8.16958    -30.749   139.697
8.28841    -35.812    68.377
8.40896    -40.876    -2.943
8.53128    -35.333   -13.089
8.65537    -28.419   -15.359
8.78126    -21.512   -17.599
8.90899    -19.355   -25.227
9.03857    -17.507   -33.214
9.17004    -15.815   -41.390
9.30342    -15.231   -51.445
9.43874    -14.650   -61.495
9.57603    -14.477   -73.619
9.71532    -14.892   -88.964
9.85663    -15.327  -104.308
10.0000    -15.556  -130.067
10.1455    -15.735  -158.741
10.2930    -15.320   173.484
10.4427    -13.202   148.282
10.5946    -11.107   123.011
10.7487     -9.236   106.326
10.9051     -7.430    91.256
11.0637     -5.985    77.661
11.2246     -4.933    65.533
11.3879     -4.023    53.527
11.5535     -3.630    41.980
11.7216     -3.250    30.375
11.8921     -3.512    18.365
12.0650     -3.775     6.297
12.2405     -4.745    -7.301
12.4186     -5.805   -21.129
12.5992     -7.802   -40.195
12.7825    -10.005   -60.420
12.9684    -11.697   -98.888
13.1570    -13.268  -141.595
13.3484    -11.136  -176.015
13.5426     -8.394   150.885
13.7395     -6.350   133.907
13.9394     -4.418   118.081
14.1421     -3.275   106.569
14.3478     -2.276    95.870
14.5565     -1.635    86.949
14.7683     -1.145    79.136
14.9831     -0.762    72.226
15.2010     -0.474    66.425
15.4221     -0.200    60.956
15.6464      0.036    55.897
15.8740      0.204    50.859
16.1049      0.321    45.889
16.3392      0.197    41.472
16.5768     -0.054    38.089
16.8179     -0.479    36.151
17.0626     -0.880    38.851
17.3107     -0.915    43.947
17.5625     -0.395    51.763
17.8180      1.169    56.716
18.0771      2.892    58.576
18.3401      4.667    57.256
18.6068      6.148    53.072
18.8775      7.316    48.404
19.1521      8.238    44.028
19.4306      8.945    40.518
19.7133      9.534    39.116
20.0000     10.248    39.413
20.2909     11.170    40.404
20.5860     12.315    41.232
20.8855     13.625    40.945
21.1893     14.921    38.916
21.4975     16.069    35.969
21.8102     17.056    32.774
22.1274     17.902    29.883
22.4492     18.671    27.698
22.7758     19.452    26.336
23.1071     20.328    25.521
23.4432     21.338    24.657
23.7841     22.443    23.136
24.1301     23.555    20.856
24.4811     24.617    18.060
24.8372     25.609    15.104
25.1984     26.546    12.309
25.5649     27.463     9.847
25.9368     28.400     7.709
26.3141     29.377     5.749
26.6968     30.396     3.791
27.0851     31.445     1.724
27.4791     32.508    -0.498
27.8788     33.572    -2.874
28.2843     34.629    -5.386
28.6957     35.670    -8.023
29.1131     36.688   -10.766
29.5365     37.678   -13.561
29.9661     38.644   -16.352
30.4020     39.594   -19.116
30.8442     40.546   -21.898
31.2929     41.501   -24.773
31.7480     42.456   -27.813
32.2098     43.408   -31.055
32.6783     44.348   -34.531
33.1536     45.272   -38.201
33.6359     46.176   -42.024
34.1251     47.058   -45.967
34.6215     47.924   -49.981
35.1250     48.777   -54.043
35.6359     49.620   -58.182
36.1543     50.453   -62.405
36.6802     51.267   -66.705
37.2137     52.059   -71.033
37.7550     52.834   -75.357
38.3041     53.593   -79.694
38.8613     54.336   -84.074
39.4265     55.051   -88.497
40.0000     55.739   -92.900
40.5818     56.408   -97.272
41.1721     57.066  -101.700
41.7710     57.701  -106.260
42.3785     58.286  -110.908
42.9949     58.821  -115.432
43.6203     59.334  -119.697
44.2548     59.858  -123.741
44.8985     60.399  -127.773
45.5515     60.935  -131.862
46.2141     61.455  -135.921
46.8863     61.963  -139.846
47.5683     62.469  -143.658
48.2602     62.969  -147.442
48.9621     63.453  -151.215
49.6743     63.913  -154.947
50.3968     64.348  -158.631
51.1299     64.760  -162.286
51.8736     65.144  -165.910
52.6281     65.507  -169.483
53.3936     65.854  -173.000
54.1702     66.188  -176.455
54.9581     66.511  -179.816
55.7575     66.824   176.943
56.5685     67.130   173.828
57.3914     67.419   170.849
58.2261     67.681   168.025
59.0730     67.902   165.413
59.9323     68.085   163.047
60.8040     68.239   160.887
61.6884     68.370   158.782
62.5857     68.474   156.616
63.4960     68.557   154.376
64.4196     68.630   152.070
65.3566     68.712   149.725
66.3073     68.811   147.387
67.2717     68.928   145.114
68.2502     69.053   143.068
69.2429     69.189   141.369
70.2501     69.327   139.997
71.2719     69.451   138.899
72.3086     69.549   137.923
73.3603     69.605   136.934
74.4274     69.632   135.905
75.5099     69.651   134.712
76.6083     69.664   133.504
77.7226     69.714   132.523
78.8531     69.821   131.784
80.0000     69.971   131.370
81.1636     70.135   131.237
82.3442     70.273   131.382
83.5419     70.372   131.663
84.7570     70.420   131.882
85.9899     70.430   131.971
87.2406     70.426   132.008
88.5096     70.449   132.079
89.7970     70.509   132.135
91.1031     70.581   132.211
92.4282     70.631   132.372
93.7726     70.639   132.682
95.1366     70.598   133.309
96.5204     70.565   134.279
97.9243     70.551   135.349
99.3486     70.561   136.511
100.794     70.587   137.674
102.260     70.620   138.893
103.747     70.647   140.183
105.256     70.666   141.615
106.787     70.677   143.147
108.340     70.669   144.687
109.916     70.626   146.257
111.515     70.566   148.100
113.137     70.545   150.150
114.783     70.541   152.305
116.452     70.528   154.654
118.146     70.506   157.253
119.865     70.481   159.942
121.608     70.452   162.701
123.377     70.438   165.705
125.171     70.436   168.256
126.992     70.438   171.309
128.839     70.436   174.376
130.713     70.416   177.440
132.615     70.372  -178.872
134.543     70.325  -175.519
136.500     70.291  -172.172
138.486     70.259  -168.276
140.500     70.217  -164.559
142.544     70.183  -160.769
144.617     70.163  -156.829
146.721     70.117  -152.246
148.855     70.110  -147.584
151.020     70.146  -143.161
153.217     70.141  -138.899
155.445     70.122  -134.466
157.706     70.106  -130.025
160.000     69.941  -125.911
162.327     69.806  -120.552
164.688     69.790  -113.929
167.084     69.830  -107.772
169.514     69.903  -103.320
171.980     69.776   -99.036
174.481     69.614   -92.763
177.019     69.549   -86.008
179.594     69.528   -79.621
182.206     69.494   -72.726
184.856     69.538   -65.807
187.545     69.577   -59.195
190.273     69.605   -52.665
193.041     69.635   -46.471
195.849     69.635   -39.627
198.697     69.688   -32.889
201.587     69.666   -26.435
204.520     69.514   -19.294
207.494     69.393   -11.372
210.512     69.348    -3.215
213.574     69.351     4.494
216.681     69.246    12.290
219.833     69.255    20.959
223.030     69.275    29.733
226.274     69.344    38.377
229.565     69.415    46.683
232.905     69.361    54.717
236.292     69.264    63.644
239.729     69.221    72.928
243.216     69.266    82.729
246.754     69.315    91.432
250.343     69.226   100.154
253.984     69.128   110.265
257.678     69.104   120.490
261.426     69.113   130.520
265.229     69.088   140.807
269.087     69.037   150.598
273.001     68.870   161.578
276.972     68.802   173.333
281.000     68.851  -175.590
285.088     68.849  -164.212
289.234     68.859  -153.171
293.441     68.878  -142.025
297.709     68.821  -130.449
302.040     68.692  -119.110
306.433     68.434  -107.111
310.890     68.318   -93.802
315.412     68.253   -80.939
320.000     68.167   -67.586
324.655     68.043   -54.690
329.377     67.855   -40.342
334.168     67.678   -25.305
339.028     67.571    -9.804
343.959     67.944     4.671
348.962     67.929    17.402
354.038     67.733    32.428
359.188     67.655    48.530
364.412     67.574    64.150
369.713     67.468    79.771
375.090     67.418    96.974
380.546     67.494   114.344
386.081     67.575   130.853
391.697     67.516   148.107
397.394     67.644   165.621
403.175     67.659  -177.058
409.039     67.706  -158.531
414.989     67.892  -139.829
421.025     68.125  -121.958
427.149     68.176  -104.755
433.362     68.223   -85.571
439.665     68.410   -66.739
446.060     68.650   -48.528
452.548     68.707   -30.541
459.131     68.820   -12.059
465.809     68.852     6.695
472.584     68.875    25.604
479.458     68.922    44.707
486.432     68.896    63.984
493.507     68.825    83.544
500.686     68.737   102.807
507.968     68.572   122.638
515.357     68.363   143.172
522.853     68.099   164.317
530.458     67.786  -173.696
538.174     67.425  -151.385
546.002     67.045  -128.605
553.943     66.610  -104.754
562.001     66.133   -79.913
570.175     65.682   -54.305
578.469     65.245   -27.269
586.883     64.863     1.129
595.419     64.604    30.778
604.080     64.506    61.644
612.866     64.603    92.472
621.780     64.892   123.561
630.824     65.353   154.530
640.000     65.902  -175.541
649.309     66.504  -146.008
658.753     67.138  -116.496
668.335     67.740   -87.777
678.056     68.290   -59.747
687.919     68.791   -31.372
697.925     69.225    -2.952
708.077     69.587    25.089
718.376     69.882    53.435
728.825     70.081    82.110
739.426     70.216   111.073
750.181     70.264   140.528
761.093     70.242   170.545
772.163     70.135  -158.773
783.394     69.946  -127.374
794.789     69.679   -95.189
806.349     69.352   -62.520
818.078     68.964   -28.248
829.977     68.542     7.083
842.050     68.112    43.268
854.298     67.713    81.383
866.724     67.380   120.662
879.330     67.179   161.006
892.120     67.109  -157.883
905.097     67.187  -116.484
918.262     67.370   -75.170
931.618     67.609   -34.013
945.169     67.872     7.339
958.917     68.092    48.465
972.864     68.246    89.508
987.015     68.314   130.702
1001.37     68.282   172.322
1015.94     68.121  -144.955
1030.71     67.858  -101.374
1045.71     67.506   -56.646
1060.92     67.119   -10.033
1076.35     66.729    38.373
1092.00     66.448    88.249
1107.89     66.336   139.417
1124.00     66.453  -168.857
1140.35     66.768  -116.760
1156.94     67.229   -64.856
1173.77     67.720   -13.815
1190.84     68.167    36.942
1208.16     68.507    87.204
1225.73     68.702   137.228
1243.56     68.736  -172.140
1261.65     68.602  -121.058
1280.00     68.295   -68.715
1298.62     67.816   -14.764
1317.51     67.208    41.168
1336.67     66.527    98.982
1356.11     65.865   158.797
1375.84     65.336  -139.012
1395.85     65.031   -75.103
1416.15     64.967   -10.420
1436.75     65.075    54.242
1457.65     65.232   118.089
1478.85     65.340  -178.261
1500.36     65.336  -114.431
1522.19     65.199   -50.650
1544.33     64.938    14.495
1566.79     64.553    80.637
1589.58     64.065   147.312
1612.70     63.466  -145.201
1636.16     62.707   -76.457
1659.95     61.697    -7.089
1684.10     60.340    62.691
1708.60     58.380   134.797
1733.45     55.522  -148.583
1758.66     51.632   -60.024
1784.24     49.345    54.143
1810.19     52.118   164.021
1836.52     55.231  -109.505
1863.24     57.078   -31.321
1890.34     57.876    46.226
1917.83     57.763   125.000
1945.73     56.919  -153.061
1974.03     55.610   -64.090
2002.74     54.667    33.656
2031.87     54.975   134.604
2061.43     56.163  -128.466
2091.41     57.207   -36.545
2121.83     57.686    53.179
2152.69     57.568   143.654
2184.01     57.031  -122.440
2215.77     56.411   -24.245
2248.00     56.066    76.401
2280.70     56.007   176.831
2313.87     55.857   -83.786
2347.53     55.105    14.204
2381.68     53.537   113.967
2416.32     50.915  -140.761
2451.46     47.718   -23.470
2487.12     45.692   109.014
2523.30     45.738  -118.958
2560.00     46.244    10.075
2597.24     47.199   142.044
2635.01     49.387   -89.449
2673.34     51.792    30.585
2712.23     53.368   145.031
2751.68     53.908  -101.052
2791.70     53.594    16.208
2832.31     52.776   139.680
2873.50     52.009   -90.742
2915.30     51.609    41.767
2957.70     51.329   175.694
3000.72     50.952   -47.026
3044.37     50.973    94.360
3088.65     51.709  -123.878
3133.58     52.676    14.649
3179.16     53.156   150.841
3225.40     52.993   -71.989
3272.31     52.230    68.543
3319.91     51.086  -146.068
3368.20     49.897     5.379
3417.19     49.095   162.011
3466.89     48.769   -41.460
3517.32     48.273   113.890
3568.48     47.018   -88.131
3620.39     45.573    79.007
3673.05     45.032  -110.091
3726.47     44.516    54.042
3780.67     41.466  -137.022
3835.67     38.617    67.339
3891.46     42.573   -95.877
3948.06     44.486    71.398
4005.49     42.859  -115.238
4063.75     41.489    85.184
4122.86     43.856   -78.307
4182.82     45.206   103.688
4243.66     45.311   -69.918
4305.39     45.529   119.388
4368.01     44.798   -52.157
4431.55     42.889   151.442
4496.01     44.233     6.525
4561.40     46.541  -159.343
4627.75     46.665    31.676
4695.06     46.326  -130.376
4763.35     46.545    63.830
4832.64     44.943  -111.863
4902.93     37.926    77.942
4974.24     32.159    -1.707
5046.60     38.416  -132.653
5120.00     38.704    90.669
5194.47     41.637   -34.090
5270.03     44.177  -175.253
5346.68     44.820    52.121
5424.45     45.948   -74.619
5503.35     45.692   157.695
5583.40     44.753    50.869
5664.61     46.635   -54.567
5747.01     47.202  -166.696
5830.60     47.622    92.388
5915.41     47.885   -11.703
6001.45     46.381  -105.232
6088.74     47.243   171.464
6177.30     46.618    80.322
6267.15     45.842    10.772
6358.31     46.535   -64.556
6450.80     45.778  -128.097
6544.62     47.125   165.951
6639.82     45.873   103.985
6736.40     46.836    56.110
6834.38     46.374    -3.759
6933.79     44.917   -39.621
7034.64     46.018   -70.695
7136.96     47.229  -110.781
7240.77     46.266  -145.056
7346.09     46.335  -169.765
7452.94     43.972   174.803
7561.35     45.435   179.949
7671.33     47.085   176.138
7782.91     49.335   164.710
7896.12     49.625   165.041
8010.97     51.173   161.919
8127.49     51.205   170.711
8245.71     51.940   176.993
8365.65     51.624  -164.853
8487.33     51.082  -142.486
8610.78     51.774  -110.457
8736.03     51.273   -74.198
8863.09     52.327   -40.712
8992.01     51.066     5.391
9122.80     49.696    50.035
9255.50     47.893   121.300
9390.12     47.883  -161.533
9526.70     47.039   -84.550
9665.27     48.901     3.222
9805.86     49.374    95.634
9948.49     50.376  -177.244
10093.2     52.313   -75.568
10240.0     54.030    20.316
10388.9     54.623   117.093
10540.1     54.381  -143.082
10693.4     52.450   -26.997
10848.9     50.826   101.088
11006.7     49.147  -125.316
11166.8     47.427    17.569
11329.2     45.573   170.203
11494.0     41.335   -27.551
11661.2     38.607   158.277
11830.8     36.818   -13.549
12002.9     37.128  -174.086
12177.5     37.288    18.138
12354.6     36.690  -139.769
12534.3     36.695    59.980
12716.6     34.411  -124.683
12901.6     25.807    90.906
13089.2     28.927   -40.411
13279.6     29.673   169.730
13472.8     26.932    14.164
13668.8     18.225   -89.874
13867.6     16.652   159.269
14069.3     24.509   -97.466
14273.9     28.194  -168.314
14481.5     31.484   117.147
14692.2     34.059    62.411
14905.9     35.805    12.458
15122.7     38.799   -26.500
15342.7     38.887   -59.915
15565.8     39.675   -67.950
15792.2     40.682   -71.228
16021.9     41.568   -64.811
16255.0     42.359   -51.524
16491.4     42.395   -29.672
16731.3     42.413     8.453
16974.7     42.626    56.256
17221.6     42.389   124.318
17472.1     42.734  -162.585
17726.2     41.543   -73.133
17984.0     42.277    32.306
18245.6     41.761   138.416
18511.0     41.691   -96.932
18780.2     41.919    35.174
19053.4     42.492  -179.402
19330.5     41.785   -23.589
19611.7     41.150   149.027
19897.0     39.200   -93.188
20186.4     39.082   -90.358
20480.0     38.964   -87.528
20777.9     38.846   -84.697
21080.1     38.728   -81.867
21386.7     38.610   -79.036
21697.8     38.492   -76.206
22013.4     38.374   -73.376
22333.6     38.256   -70.545
22658.4     38.138   -67.715
22988.0     38.020   -64.884
23322.4     37.901   -62.054
23661.6     37.783   -59.224
24005.8     37.665   -56.393
24355.0     37.547   -53.563
24709.2     37.429   -50.733
25068.6     37.311   -47.902
25433.2     37.193   -45.072
25803.2     37.075   -42.241
26178.5     36.957   -39.411
26559.3     36.839   -36.581
26945.6     36.721   -33.750
27337.5     36.603   -30.920
27735.2     36.485   -28.089
28138.6     36.367   -25.259
28547.9     36.249   -22.429
28963.1     36.131   -19.598
29384.4     36.013   -16.768
29811.8     35.895   -13.937
30245.4     35.777   -11.107
30685.3     35.659    -8.277
31131.7     35.541    -5.446
31584.5     35.423    -2.616
32043.9     35.305     0.214
32510.0     35.187     3.045
32982.8     35.068     5.875
33462.6     34.950     8.706
33949.3     34.832    11.536
34443.1     34.714    14.366
34944.1     34.596    17.197
35452.4     34.478    20.027
35968.0     34.360    22.858
36491.2     34.242    25.688
37022.0     34.124    28.518
37560.5     34.006    31.349
38106.8     33.888    34.179
38661.1     33.770    37.010
39223.4     33.652    39.840
39793.9     33.534    42.670
