Freq[Hz]     dBSPL  Phase[Deg]
5.00000    -17.139   -12.454
5.07273    -16.784   -12.540
5.14651    -16.399   -12.632
5.22137    -15.968   -12.733
5.29732    -15.519   -12.839
5.37437    -15.049   -12.950
5.45254    -14.580   -13.062
5.53185    -14.110   -13.176
5.61231    -13.640   -13.292
5.69394    -13.171   -13.410
5.77676    -12.701   -13.529
5.86079    -12.231   -13.650
5.94604    -11.762   -13.773
6.03252    -11.292   -13.898
6.12027    -10.822   -14.024
6.20929    -10.352   -14.153
6.29961     -9.882   -14.283
6.39124     -9.413   -14.415
6.48420     -8.943   -14.549
6.57851     -8.473   -14.685
6.67420     -8.003   -14.823
6.77128     -7.533   -14.963
6.86977     -7.063   -15.106
6.96969     -6.593   -15.250
7.07107     -6.123   -15.396
7.17392     -5.652   -15.545
7.27827     -5.182   -15.696
7.38413     -4.712   -15.849
7.49154     -4.242   -16.004
7.60050     -3.772   -16.162
7.71105     -3.301   -16.321
7.82321     -2.831   -16.484
7.93701     -2.360   -16.648
8.05245     -1.890   -16.816
8.16958     -1.420   -16.985
8.28841     -0.949   -17.157
8.40896     -0.478   -17.332
8.53128     -0.008   -17.510
8.65537      0.463   -17.690
8.78126      0.934   -17.872
8.90899      1.405   -18.058
9.03857      1.875   -18.246
9.17004      2.346   -18.437
9.30342      2.817   -18.631
9.43874      3.288   -18.828
9.57603      3.760   -19.027
9.71532      4.231   -19.230
9.85663      4.702   -19.436
10.0000      5.173   -19.645
10.1455      5.645   -19.857
10.2930      6.116   -20.072
10.4427      6.588   -20.291
10.5946      7.059   -20.513
10.7487      7.531   -20.738
10.9051      8.003   -20.966
11.0637      8.475   -21.199
11.2246      8.947   -21.434
11.3879      9.419   -21.673
11.5535      9.891   -21.916
11.7216     10.363   -22.163
11.8921     10.835   -22.413
12.0650     11.308   -22.667
12.2405     11.780   -22.926
12.4186     12.253   -23.188
12.5992     12.726   -23.454
12.7825     13.199   -23.724
12.9684     13.672   -23.998
13.1570     14.145   -24.277
13.3484     14.618   -24.560
13.5426     15.091   -24.847
13.7395     15.565   -25.139
13.9394     16.038   -25.436
14.1421     16.512   -25.737
14.3478     16.986   -26.042
14.5565     17.460   -26.353
14.7683     17.934   -26.668
14.9831     18.409   -26.989
15.2010     18.883   -27.314
15.4221     19.358   -27.645
15.6464     19.833   -27.981
15.8740     20.308   -28.322
16.1049     20.783   -28.669
16.3392     21.258   -29.022
16.5768     21.734   -29.380
16.8179     22.210   -29.743
17.0626     22.686   -30.113
17.3107     23.162   -30.489
17.5625     23.638   -30.871
17.8180     24.115   -31.259
18.0771     24.592   -31.653
18.3401     25.069   -32.054
18.6068     25.546   -32.462
18.8775     26.024   -32.876
19.1521     26.501   -33.297
19.4306     26.979   -33.725
19.7133     27.455   -34.177
20.0000     27.926   -34.674
20.2909     28.384   -35.222
20.5860     28.826   -35.788
20.8855     29.255   -36.227
21.1893     29.677   -36.468
21.4975     30.102   -36.593
21.8102     30.540   -36.683
22.1274     30.997   -36.816
22.4492     31.473   -37.042
22.7758     31.967   -37.347
23.1071     32.472   -37.770
23.4432     32.985   -38.304
23.7841     33.497   -39.004
24.1301     34.004   -39.964
24.4811     34.502   -41.058
24.8372     34.989   -42.094
25.1984     35.468   -42.997
25.5649     35.944   -43.723
25.9368     36.418   -44.372
26.3141     36.894   -45.068
26.6968     37.373   -45.870
27.0851     37.852   -46.810
27.4791     38.333   -47.847
27.8788     38.813   -48.894
28.2843     39.292   -49.872
28.6957     39.771   -50.792
29.1131     40.250   -51.715
29.5365     40.729   -52.680
29.9661     41.209   -53.737
30.4020     41.688   -54.825
30.8442     42.165   -55.915
31.2929     42.637   -57.036
31.7480     43.104   -58.194
32.2098     43.567   -59.433
32.6783     44.029   -60.734
33.1536     44.497   -61.867
33.6359     44.974   -62.715
34.1251     45.464   -63.269
34.6215     45.967   -63.877
35.1250     46.482   -64.782
35.6359     47.004   -66.043
36.1543     47.529   -67.449
36.6802     48.053   -68.876
37.2137     48.574   -70.249
37.7550     49.091   -71.587
38.3041     49.603   -73.029
38.8613     50.113   -74.739
39.4265     50.622   -76.510
40.0000     51.131   -78.176
40.5818     51.642   -79.654
41.1721     52.154   -81.109
41.7710     52.664   -82.706
42.3785     53.171   -84.559
42.9949     53.670   -86.645
43.6203     54.159   -88.858
44.2548     54.639   -91.066
44.8985     55.111   -93.142
45.5515     55.578   -95.038
46.2141     56.044   -96.814
46.8863     56.511   -98.572
47.5683     56.983  -100.394
48.2602     57.458  -102.333
48.9621     57.937  -104.387
49.6743     58.417  -106.530
50.3968     58.897  -108.740
51.1299     59.375  -110.997
51.8736     59.849  -113.288
52.6281     60.318  -115.615
53.3936     60.781  -117.992
54.1702     61.238  -120.430
54.9581     61.691  -122.923
55.7575     62.137  -125.477
56.5685     62.579  -128.101
57.3914     63.014  -130.771
58.2261     63.443  -133.472
59.0730     63.863  -136.223
59.9323     64.272  -139.041
60.8040     64.670  -141.922
61.6884     65.057  -144.849
62.5857     65.436  -147.816
63.4960     65.804  -150.821
64.4196     66.159  -153.851
65.3566     66.501  -156.908
66.3073     66.830  -159.996
67.2717     67.149  -163.110
68.2502     67.461  -166.243
69.2429     67.767  -169.411
70.2501     68.063  -172.630
71.2719     68.341  -175.902
72.3086     68.596  -179.188
73.3603     68.831   177.563
74.4274     69.049   174.370
75.5099     69.255   171.235
76.6083     69.452   168.135
77.7226     69.640   165.040
78.8531     69.817   161.948
80.0000     69.981   158.864
81.1636     70.132   155.812
82.3442     70.273   152.811
83.5419     70.401   149.852
84.7570     70.518   146.934
85.9899     70.623   144.069
87.2406     70.717   141.267
88.5096     70.802   138.532
89.7970     70.881   135.863
91.1031     70.957   133.249
92.4282     71.031   130.671
93.7726     71.100   128.132
95.1366     71.163   125.631
96.5204     71.220   123.160
97.9243     71.271   120.725
99.3486     71.314   118.335
100.794     71.350   115.994
102.260     71.382   113.707
103.747     71.409   111.483
105.256     71.436   109.316
106.787     71.464   107.172
108.340     71.490   105.028
109.916     71.509   102.901
111.515     71.520   100.804
113.137     71.521    98.759
114.783     71.517    96.789
116.452     71.512    94.887
118.146     71.507    93.025
119.865     71.501    91.191
121.608     71.491    89.390
123.377     71.477    87.637
125.171     71.460    85.950
126.992     71.443    84.323
128.839     71.428    82.742
130.713     71.417    81.192
132.615     71.407    79.650
134.543     71.396    78.114
136.500     71.382    76.599
138.486     71.365    75.115
140.500     71.347    73.668
142.544     71.328    72.262
144.617     71.312    70.893
146.721     71.297    69.550
148.855     71.283    68.225
151.020     71.269    66.911
153.217     71.254    65.608
155.445     71.237    64.318
157.706     71.217    63.041
160.000     71.191    61.787
162.327     71.160    60.585
164.688     71.127    59.450
167.084     71.097    58.382
169.514     71.075    57.370
171.980     71.060    56.379
174.481     71.051    55.382
177.019     71.043    54.373
179.594     71.035    53.353
182.206     71.022    52.335
184.856     71.008    51.337
187.545     70.992    50.360
190.273     70.975    49.412
193.041     70.957    48.504
195.849     70.941    47.633
198.697     70.927    46.795
201.587     70.916    45.968
204.520     70.905    45.146
207.494     70.890    44.365
210.512     70.877    43.661
213.574     70.873    43.042
216.681     70.889    42.460
219.833     70.925    41.816
223.030     70.970    41.023
226.274     71.007    40.049
229.565     71.019    38.982
232.905     71.006    37.960
236.292     70.980    37.059
239.729     70.953    36.313
243.216     70.938    35.689
246.754     70.938    35.098
250.343     70.948    34.491
253.984     70.961    33.879
257.678     70.984    33.282
261.426     71.018    32.637
265.229     71.057    31.883
269.087     71.088    31.025
273.001     71.104    30.092
276.972     71.097    29.185
281.000     71.081    28.426
285.088     71.075    27.817
289.234     71.089    27.258
293.441     71.121    26.620
297.709     71.157    25.844
302.040     71.181    24.974
306.433     71.190    24.105
310.890     71.188    23.316
315.412     71.187    22.640
320.000     71.200    22.018
324.655     71.225    21.337
329.377     71.252    20.556
334.168     71.274    19.686
339.028     71.281    18.778
343.959     71.273    17.939
348.962     71.266    17.209
354.038     71.269    16.495
359.188     71.271    15.766
364.412     71.275    15.050
369.713     71.282    14.278
375.090     71.278    13.473
380.546     71.270    12.730
386.081     71.267    12.005
391.697     71.265    11.264
397.394     71.255    10.491
403.175     71.225     9.762
409.039     71.190     9.200
414.989     71.173     8.756
421.025     71.175     8.353
427.149     71.200     7.935
433.362     71.243     7.390
439.665     71.281     6.661
446.060     71.300     5.811
452.548     71.298     4.941
459.131     71.274     4.119
465.809     71.238     3.433
472.584     71.211     2.897
479.458     71.198     2.407
486.432     71.192     1.926
493.507     71.194     1.480
500.686     71.213     1.055
507.968     71.245     0.568
515.357     71.276     0.018
522.853     71.308    -0.514
530.458     71.348    -1.044
538.174     71.396    -1.600
546.002     71.454    -2.247
553.943     71.514    -3.026
562.001     71.572    -3.897
570.175     71.623    -4.903
578.469     71.645    -6.008
586.883     71.644    -7.029
595.419     71.637    -7.941
604.080     71.619    -8.844
612.866     71.591    -9.692
621.780     71.569   -10.353
630.824     71.562   -10.870
640.000     71.581   -11.334
649.309     71.631   -11.846
658.753     71.686   -12.593
668.335     71.716   -13.563
678.056     71.714   -14.590
687.919     71.684   -15.455
697.925     71.670   -16.014
708.077     71.728   -16.599
718.376     71.798   -17.754
728.825     71.764   -19.073
739.426     71.703   -19.767
750.181     71.717   -20.183
761.093     71.777   -20.853
772.163     71.839   -21.747
783.394     71.889   -22.824
794.789     71.898   -24.087
806.349     71.862   -25.283
818.078     71.806   -26.308
829.977     71.745   -27.133
842.050     71.717   -27.660
854.298     71.751   -28.094
866.724     71.827   -28.651
879.330     71.928   -29.428
892.120     72.038   -30.583
905.097     72.115   -32.115
918.262     72.125   -33.774
931.618     72.089   -35.332
945.169     72.046   -36.634
958.917     72.017   -37.649
972.864     72.022   -38.624
987.015     72.051   -39.834
1001.37     72.066   -41.187
1015.94     72.060   -42.666
1030.71     72.025   -44.277
1045.71     71.964   -45.726
1060.92     71.902   -46.963
1076.35     71.839   -48.175
1092.00     71.744   -49.330
1107.89     71.634   -50.184
1124.00     71.565   -50.790
1140.35     71.546   -51.387
1156.94     71.577   -51.995
1173.77     71.654   -52.927
1190.84     71.700   -54.356
1208.16     71.683   -55.785
1225.73     71.651   -57.139
1243.56     71.608   -58.455
1261.65     71.560   -59.550
1280.00     71.548   -60.603
1298.62     71.541   -61.702
1317.51     71.548   -62.762
1336.67     71.565   -63.998
1356.11     71.547   -65.190
1375.84     71.534   -66.238
1395.85     71.526   -67.244
1416.15     71.513   -68.107
1436.75     71.529   -68.951
1457.65     71.557   -69.817
1478.85     71.616   -70.641
1500.36     71.713   -71.576
1522.19     71.848   -72.676
1544.33     72.042   -74.059
1566.79     72.234   -75.976
1589.58     72.393   -78.312
1612.70     72.504   -80.872
1636.16     72.544   -83.520
1659.95     72.559   -86.216
1684.10     72.529   -88.764
1708.60     72.472   -91.268
1733.45     72.394   -93.607
1758.66     72.275   -95.600
1784.24     72.143   -97.195
1810.19     72.047   -98.448
1836.52     71.998   -99.286
1863.24     72.025   -99.969
1890.34     72.126  -100.892
1917.83     72.307  -102.329
1945.73     72.501  -104.164
1974.03     72.664  -106.715
2002.74     72.751  -109.758
2031.87     72.707  -112.875
2061.43     72.584  -115.776
2091.41     72.438  -118.242
2121.83     72.274  -120.274
2152.69     72.168  -121.750
2184.01     72.120  -122.651
2215.77     72.125  -123.555
2248.00     72.169  -124.570
2280.70     72.247  -125.906
2313.87     72.390  -127.637
2347.53     72.520  -129.776
2381.68     72.606  -132.017
2416.32     72.676  -133.875
2451.46     72.716  -135.694
2487.12     72.742  -137.332
2523.30     72.798  -138.650
2560.00     72.900  -140.190
2597.24     73.020  -142.032
2635.01     73.136  -144.027
2673.34     73.227  -146.440
2712.23     73.251  -149.237
2751.68     73.207  -151.913
2791.70     73.141  -154.428
2832.31     73.066  -156.732
2873.50     73.004  -158.466
2915.30     73.031  -160.032
2957.70     73.095  -161.707
3000.72     73.163  -163.429
3044.37     73.210  -165.599
3088.65     73.144  -168.015
3133.58     72.994  -169.547
3179.16     73.016  -171.007
3225.40     72.941  -172.983
3272.31     72.821  -174.233
3319.91     72.733  -174.917
3368.20     72.732  -175.357
3417.19     72.837  -176.278
3466.89     72.960  -178.037
3517.32     73.010   179.529
3568.48     72.939   176.863
3620.39     72.733   174.683
3673.05     72.455   173.419
3726.47     72.198   173.050
3780.67     72.048   172.970
3835.67     71.989   172.704
3891.46     71.950   171.953
3948.06     71.867   170.964
4005.49     71.717   170.196
4063.75     71.542   169.890
4122.86     71.396   169.872
4182.82     71.281   169.725
4243.66     71.157   169.386
4305.39     70.986   168.968
4368.01     70.782   168.950
4431.55     70.591   169.389
4496.01     70.432   169.953
4561.40     70.312   170.689
4627.75     70.198   171.328
4695.06     70.057   172.015
4763.35     69.917   173.132
4832.64     69.809   174.540
4902.93     69.766   176.170
4974.24     69.783   177.634
5046.60     69.819   178.894
5120.00     69.849   179.962
5194.47     69.872  -179.002
5270.03     69.904  -177.912
5346.68     69.934  -176.919
5424.45     69.966  -175.857
5503.35     70.016  -174.640
5583.40     70.069  -173.495
5664.61     70.142  -172.423
5747.01     70.211  -171.598
5830.60     70.255  -170.927
5915.41     70.298  -170.312
6001.45     70.333  -169.851
6088.74     70.333  -169.569
6177.30     70.268  -169.193
6267.15     70.157  -168.410
6358.31     70.046  -167.197
6450.80     69.961  -165.665
6544.62     69.914  -163.984
6639.82     69.894  -162.185
6736.40     69.922  -160.341
6834.38     69.932  -158.920
6933.79     69.850  -157.449
7034.64     69.779  -155.630
7136.96     69.660  -154.221
7240.77     69.434  -152.095
7346.09     69.314  -149.282
7452.94     69.193  -146.756
7561.35     69.088  -143.038
7671.33     69.212  -139.285
7782.91     69.311  -136.438
7896.12     69.410  -132.956
8010.97     69.614  -130.006
8127.49     69.738  -127.578
8245.71     69.855  -124.843
8365.65     70.001  -122.292
8487.33     70.132  -119.675
8610.78     70.297  -116.855
8736.03     70.520  -114.162
8863.09     70.784  -111.801
8992.01     71.038  -109.882
9122.80     71.268  -108.125
9255.50     71.491  -106.831
9390.12     71.605  -105.822
9526.70     71.635  -104.543
9665.27     71.641  -103.048
9805.86     71.592  -101.434
9948.49     71.515   -99.243
10093.2     71.485   -96.680
10240.0     71.500   -93.712
10388.9     71.625   -90.910
10540.1     71.737   -88.547
10693.4     71.880   -86.423
10848.9     71.972   -85.104
11006.7     71.921   -83.897
11166.8     71.798   -82.384
11329.2     71.572   -80.574
11494.0     71.261   -77.952
11661.2     70.946   -74.438
11830.8     70.643   -70.137
12002.9     70.414   -65.202
12177.5     70.272   -59.592
12354.6     70.319   -53.734
12534.3     70.520   -48.516
12716.6     70.832   -43.933
12901.6     71.158   -41.173
13089.2     71.228   -38.653
13279.6     71.284   -35.610
13472.8     71.299   -32.691
13668.8     71.283   -29.473
13867.6     71.271   -26.257
14069.3     71.197   -22.870
14273.9     71.126   -18.884
14481.5     71.059   -14.794
14692.2     70.982   -10.041
14905.9     70.972    -5.117
15122.7     70.980     0.027
15342.7     71.071     5.176
15565.8     71.199    10.256
15792.2     71.368    15.003
16021.9     71.556    19.598
16255.0     71.707    23.890
16491.4     71.845    28.288
16731.3     71.944    32.742
16974.7     72.049    37.594
17221.6     72.152    42.549
17472.1     72.275    47.715
17726.2     72.403    52.712
17984.0     72.505    57.792
18245.6     72.562    62.581
18511.0     72.584    67.605
18780.2     72.545    72.744
19053.4     72.509    78.138
19330.5     72.483    83.961
19611.7     72.480    90.149
19897.0     72.562    96.804
20186.4     72.727   104.003
20480.0     73.027   111.184
20777.9     73.471   118.313
21080.1     73.978   124.786
21386.7     74.556   130.368
21697.8     75.070   135.095
22013.4     75.497   138.976
22333.6     75.824   142.534
22658.4     75.981   145.582
22988.0     75.948   148.333
23322.4     75.565   151.700
23661.6     74.713   158.156
