Freq[Hz]     dBSPL  Phase[Deg]
5.00000    -17.924   -12.703
5.07273    -17.568   -12.792
5.14651    -17.180   -12.889
5.22137    -16.746   -12.996
5.29732    -16.293   -13.108
5.37437    -15.819   -13.227
5.45254    -15.346   -13.347
5.53185    -14.872   -13.468
5.61231    -14.399   -13.592
5.69394    -13.925   -13.717
5.77676    -13.451   -13.844
5.86079    -12.978   -13.973
5.94604    -12.504   -14.103
6.03252    -12.031   -14.236
6.12027    -11.557   -14.370
6.20929    -11.083   -14.506
6.29961    -10.609   -14.644
6.39124    -10.136   -14.784
6.48420     -9.662   -14.926
6.57851     -9.188   -15.070
6.67420     -8.714   -15.216
6.77128     -8.240   -15.364
6.86977     -7.766   -15.515
6.96969     -7.292   -15.667
7.07107     -6.818   -15.822
7.17392     -6.344   -15.979
7.27827     -5.870   -16.139
7.38413     -5.396   -16.300
7.49154     -4.922   -16.465
7.60050     -4.447   -16.631
7.71105     -3.973   -16.801
7.82321     -3.499   -16.973
7.93701     -3.024   -17.147
8.05245     -2.550   -17.324
8.16958     -2.075   -17.504
8.28841     -1.601   -17.687
8.40896     -1.126   -17.872
8.53128     -0.651   -18.060
8.65537     -0.176   -18.251
8.78126      0.298   -18.445
8.90899      0.773   -18.642
9.03857      1.248   -18.842
9.17004      1.723   -19.045
9.30342      2.198   -19.251
9.43874      2.673   -19.460
9.57603      3.148   -19.672
9.71532      3.623   -19.887
9.85663      4.098   -20.105
10.0000      4.574   -20.327
10.1455      5.049   -20.552
10.2930      5.524   -20.780
10.4427      6.000   -21.012
10.5946      6.475   -21.247
10.7487      6.951   -21.485
10.9051      7.427   -21.728
11.0637      7.903   -21.973
11.2246      8.378   -22.223
11.3879      8.855   -22.476
11.5535      9.331   -22.734
11.7216      9.807   -22.995
11.8921     10.283   -23.260
12.0650     10.760   -23.529
12.2405     11.236   -23.803
12.4186     11.713   -24.081
12.5992     12.190   -24.363
12.7825     12.666   -24.649
12.9684     13.143   -24.940
13.1570     13.621   -25.235
13.3484     14.098   -25.535
13.5426     14.575   -25.840
13.7395     15.053   -26.149
13.9394     15.530   -26.463
14.1421     16.008   -26.782
14.3478     16.486   -27.106
14.5565     16.964   -27.435
14.7683     17.442   -27.769
14.9831     17.920   -28.108
15.2010     18.399   -28.453
15.4221     18.877   -28.803
15.6464     19.356   -29.159
15.8740     19.835   -29.520
16.1049     20.314   -29.887
16.3392     20.794   -30.260
16.5768     21.273   -30.639
16.8179     21.753   -31.024
17.0626     22.233   -31.415
17.3107     22.713   -31.813
17.5625     23.194   -32.217
17.8180     23.674   -32.627
18.0771     24.155   -33.045
18.3401     24.636   -33.469
18.6068     25.117   -33.900
18.8775     25.599   -34.338
19.1521     26.081   -34.783
19.4306     26.563   -35.236
19.7133     27.044   -35.706
20.0000     27.524   -36.207
20.2909     27.998   -36.737
20.5860     28.463   -37.265
20.8855     28.917   -37.693
21.1893     29.358   -37.982
21.4975     29.793   -38.220
21.8102     30.231   -38.479
22.1274     30.678   -38.784
22.4492     31.143   -39.102
22.7758     31.628   -39.386
23.1071     32.131   -39.709
23.4432     32.648   -40.112
23.7841     33.172   -40.709
24.1301     33.695   -41.652
24.4811     34.209   -42.802
24.8372     34.707   -43.936
25.1984     35.191   -44.947
25.5649     35.665   -45.762
25.9368     36.134   -46.472
26.3141     36.607   -47.205
26.6968     37.085   -48.032
27.0851     37.569   -48.997
27.4791     38.056   -50.072
27.8788     38.541   -51.172
28.2843     39.023   -52.208
28.6957     39.501   -53.185
29.1131     39.979   -54.163
29.5365     40.456   -55.177
29.9661     40.934   -56.281
30.4020     41.411   -57.405
30.8442     41.886   -58.515
31.2929     42.363   -59.646
31.7480     42.838   -60.833
32.2098     43.312   -62.156
32.6783     43.780   -63.617
33.1536     44.237   -64.932
33.6359     44.687   -65.901
34.1251     45.142   -66.443
34.6215     45.624   -66.921
35.1250     46.141   -67.669
35.6359     46.681   -68.853
36.1543     47.222   -70.291
36.6802     47.753   -71.812
37.2137     48.272   -73.271
37.7550     48.783   -74.652
38.3041     49.295   -76.093
38.8613     49.815   -77.817
39.4265     50.334   -79.654
40.0000     50.845   -81.406
40.5818     51.349   -82.932
41.1721     51.853   -84.378
41.7710     52.364   -85.929
42.3785     52.882   -87.746
42.9949     53.401   -89.853
43.6203     53.912   -92.164
44.2548     54.407   -94.534
44.8985     54.883   -96.807
45.5515     55.343   -98.885
46.2141     55.794  -100.800
46.8863     56.245  -102.646
47.5683     56.703  -104.512
48.2602     57.169  -106.473
48.9621     57.642  -108.547
49.6743     58.120  -110.708
50.3968     58.599  -112.942
51.1299     59.078  -115.228
51.8736     59.554  -117.553
52.6281     60.025  -119.928
53.3936     60.491  -122.374
54.1702     60.951  -124.897
54.9581     61.403  -127.484
55.7575     61.848  -130.133
56.5685     62.285  -132.847
57.3914     62.714  -135.598
58.2261     63.134  -138.367
59.0730     63.548  -141.170
59.9323     63.953  -144.033
60.8040     64.348  -146.958
61.6884     64.734  -149.933
62.5857     65.112  -152.955
63.4960     65.480  -156.024
64.4196     65.836  -159.134
65.3566     66.175  -162.283
66.3073     66.501  -165.468
67.2717     66.814  -168.676
68.2502     67.120  -171.891
69.2429     67.420  -175.114
70.2501     67.714  -178.365
71.2719     67.994   178.336
72.3086     68.255   175.003
73.3603     68.494   171.680
74.4274     68.715   168.383
75.5099     68.920   165.123
76.6083     69.114   161.891
77.7226     69.297   158.666
78.8531     69.469   155.451
80.0000     69.628   152.245
81.1636     69.772   149.073
82.3442     69.902   145.967
83.5419     70.021   142.919
84.7570     70.128   139.929
85.9899     70.227   137.001
87.2406     70.317   134.132
88.5096     70.399   131.317
89.7970     70.476   128.557
91.1031     70.547   125.844
92.4282     70.616   123.169
93.7726     70.681   120.535
95.1366     70.739   117.941
96.5204     70.793   115.376
97.9243     70.840   112.841
99.3486     70.879   110.345
100.794     70.912   107.892
102.260     70.939   105.488
103.747     70.961   103.147
105.256     70.980   100.876
106.787     71.001    98.650
108.340     71.023    96.435
109.916     71.042    94.233
111.515     71.054    92.052
113.137     71.059    89.903
114.783     71.060    87.804
116.452     71.059    85.752
118.146     71.059    83.716
119.865     71.056    81.682
121.608     71.045    79.658
123.377     71.024    77.674
125.171     70.995    75.768
126.992     70.964    73.946
128.839     70.934    72.189
130.713     70.910    70.473
132.615     70.887    68.760
134.543     70.863    67.042
136.500     70.831    65.343
138.486     70.793    63.700
140.500     70.754    62.136
142.544     70.718    60.647
144.617     70.688    59.212
146.721     70.666    57.798
148.855     70.648    56.377
151.020     70.630    54.942
153.217     70.609    53.505
155.445     70.585    52.086
157.706     70.561    50.685
160.000     70.534    49.296
162.327     70.506    47.933
164.688     70.476    46.605
167.084     70.447    45.316
169.514     70.422    44.064
171.980     70.401    42.819
174.481     70.380    41.556
177.019     70.357    40.287
179.594     70.330    39.016
182.206     70.297    37.761
184.856     70.263    36.548
187.545     70.229    35.370
190.273     70.197    34.215
193.041     70.165    33.092
195.849     70.137    31.992
198.697     70.114    30.892
201.587     70.093    29.755
204.520     70.067    28.563
207.494     70.026    27.364
210.512     69.971    26.241
213.574     69.910    25.260
216.681     69.858    24.417
219.833     69.826    23.620
223.030     69.812    22.776
226.274     69.807    21.824
229.565     69.798    20.767
232.905     69.776    19.688
236.292     69.746    18.653
239.729     69.714    17.677
243.216     69.682    16.745
246.754     69.653    15.832
250.343     69.623    14.936
253.984     69.595    14.069
257.678     69.572    13.232
261.426     69.560    12.402
265.229     69.561    11.500
269.087     69.561    10.476
273.001     69.548     9.378
276.972     69.520     8.267
281.000     69.475     7.237
285.088     69.430     6.366
289.234     69.400     5.582
293.441     69.391     4.781
297.709     69.394     3.893
302.040     69.398     2.892
306.433     69.399     1.813
310.890     69.390     0.644
315.412     69.359    -0.591
320.000     69.309    -1.805
324.655     69.240    -2.983
329.377     69.156    -4.063
334.168     69.076    -4.993
339.028     69.010    -5.868
343.959     68.953    -6.777
348.962     68.894    -7.740
354.038     68.820    -8.735
359.188     68.728    -9.661
364.412     68.629   -10.456
369.713     68.536   -11.160
375.090     68.454   -11.805
380.546     68.384   -12.430
386.081     68.322   -13.104
391.697     68.254   -13.811
397.394     68.174   -14.519
403.175     68.078   -15.191
409.039     67.966   -15.689
414.989     67.865   -15.941
421.025     67.796   -16.027
427.149     67.767   -16.060
433.362     67.780   -16.185
439.665     67.813   -16.593
446.060     67.833   -17.249
452.548     67.837   -17.939
459.131     67.840   -18.646
465.809     67.849   -19.458
472.584     67.858   -20.403
479.458     67.853   -21.558
486.432     67.801   -22.893
493.507     67.679   -24.104
500.686     67.516   -24.868
507.968     67.363   -25.149
515.357     67.247   -25.072
522.853     67.200   -24.787
530.458     67.234   -24.593
538.174     67.318   -24.756
546.002     67.429   -25.363
553.943     67.528   -26.466
562.001     67.565   -27.960
570.175     67.506   -29.564
578.469     67.352   -30.832
586.883     67.161   -31.413
595.419     67.007   -31.461
604.080     66.931   -31.321
612.866     66.937   -31.343
621.780     66.956   -31.816
630.824     66.938   -32.514
640.000     66.893   -33.068
649.309     66.845   -33.372
658.753     66.848   -33.490
668.335     66.911   -33.728
678.056     66.981   -34.342
687.919     67.027   -35.177
697.925     67.052   -36.031
708.077     67.072   -37.017
718.376     67.057   -38.373
728.825     66.926   -39.617
739.426     66.763   -40.023
750.181     66.688   -39.887
761.093     66.701   -39.759
772.163     66.749   -39.812
783.394     66.823   -39.946
794.789     66.929   -40.231
806.349     67.059   -40.803
818.078     67.206   -41.701
829.977     67.347   -43.050
842.050     67.430   -44.706
854.298     67.455   -46.198
866.724     67.452   -47.520
879.330     67.420   -48.719
892.120     67.391   -49.541
905.097     67.412   -50.215
918.262     67.470   -51.021
931.618     67.565   -51.944
945.169     67.688   -53.126
958.917     67.795   -54.617
972.864     67.898   -56.375
987.015     67.996   -58.406
1001.37     68.060   -60.507
1015.94     68.129   -62.652
1030.71     68.188   -65.055
1045.71     68.184   -67.578
1060.92     68.134   -70.089
1076.35     68.039   -72.694
1092.00     67.868   -75.216
1107.89     67.646   -77.431
1124.00     67.393   -79.242
1140.35     67.126   -80.517
1156.94     66.878   -81.347
1173.77     66.688   -81.708
1190.84     66.601   -81.801
1208.16     66.620   -81.974
1225.73     66.730   -82.403
1243.56     66.894   -83.427
1261.65     67.044   -85.109
1280.00     67.149   -87.271
1298.62     67.161   -89.781
1317.51     67.092   -91.974
1336.67     67.023   -93.759
1356.11     66.952   -95.616
1375.84     66.866   -97.309
1395.85     66.800   -98.907
1416.15     66.719  -100.586
1436.75     66.612  -101.999
1457.65     66.535  -103.155
1478.85     66.514  -104.234
1500.36     66.543  -105.403
1522.19     66.601  -106.942
1544.33     66.654  -108.569
1566.79     66.703  -110.395
1589.58     66.739  -112.381
1612.70     66.783  -114.484
1636.16     66.829  -117.192
1659.95     66.808  -120.233
1684.10     66.717  -123.440
1708.60     66.510  -126.634
1733.45     66.186  -128.823
1758.66     65.878  -129.900
1784.24     65.647  -130.202
1810.19     65.545  -129.930
1836.52     65.638  -129.832
1863.24     65.821  -130.270
1890.34     66.084  -131.547
1917.83     66.373  -133.682
1945.73     66.604  -136.350
1974.03     66.786  -139.579
2002.74     66.866  -143.053
2031.87     66.853  -146.482
2061.43     66.768  -149.777
2091.41     66.640  -152.694
2121.83     66.499  -155.228
2152.69     66.398  -157.358
2184.01     66.364  -159.317
2215.77     66.377  -161.312
2248.00     66.407  -163.668
2280.70     66.452  -166.474
2313.87     66.469  -169.679
2347.53     66.404  -173.046
2381.68     66.280  -175.952
2416.32     66.148  -178.192
2451.46     65.973  -179.912
2487.12     65.817   179.011
2523.30     65.736   178.075
2560.00     65.754   177.092
2597.24     65.852   175.628
2635.01     65.960   173.742
2673.34     66.060   171.664
2712.23     66.081   169.381
2751.68     65.984   167.192
2791.70     65.864   165.588
2832.31     65.775   164.054
2873.50     65.732   162.521
2915.30     65.751   160.945
2957.70     65.836   159.040
3000.72     65.922   156.587
3044.37     65.941   153.891
3088.65     65.821   151.083
3133.58     65.600   149.217
3179.16     65.562   148.082
3225.40     65.462   146.158
3272.31     65.309   144.903
3319.91     65.181   144.260
3368.20     65.113   143.857
3417.19     65.148   143.316
3466.89     65.201   142.234
3517.32     65.219   140.905
3568.48     65.215   139.582
3620.39     65.211   138.366
3673.05     65.207   137.488
3726.47     65.258   136.549
3780.67     65.341   135.215
3835.67     65.383   133.572
3891.46     65.377   131.708
3948.06     65.318   129.893
4005.49     65.248   128.551
4063.75     65.245   127.175
4122.86     65.251   125.334
4182.82     65.214   123.096
4243.66     65.061   120.499
4305.39     64.768   118.244
4368.01     64.376   117.159
4431.55     63.995   117.070
4496.01     63.687   117.468
4561.40     63.439   118.372
4627.75     63.286   119.289
4695.06     63.139   120.087
4763.35     63.045   121.139
4832.64     63.040   121.837
4902.93     63.020   122.374
4974.24     63.083   122.851
5046.60     63.165   122.713
5120.00     63.200   122.821
5194.47     63.294   122.541
5270.03     63.356   121.752
5346.68     63.347   120.734
5424.45     63.236   119.302
5503.35     63.013   118.358
5583.40     62.745   118.028
5664.61     62.441   118.065
5747.01     62.102   118.808
5830.60     61.746   120.239
5915.41     61.434   122.385
6001.45     61.214   124.692
6088.74     61.101   127.263
6177.30     61.089   129.476
6267.15     61.182   131.077
6358.31     61.249   132.494
6450.80     61.311   133.539
6544.62     61.361   134.545
6639.82     61.327   135.538
6736.40     61.294   136.678
6834.38     61.267   138.513
6933.79     61.327   140.733
7034.64     61.542   142.752
7136.96     61.779   144.313
7240.77     62.051   145.472
7346.09     62.299   145.846
7452.94     62.475   145.576
7561.35     62.566   145.532
7671.33     62.570   145.596
7782.91     62.560   146.054
7896.12     62.535   146.985
8010.97     62.491   147.928
8127.49     62.490   149.046
8245.71     62.537   150.205
8365.65     62.596   150.927
8487.33     62.650   151.553
8610.78     62.677   152.315
8736.03     62.667   153.258
8863.09     62.713   154.408
8992.01     62.801   155.237
9122.80     62.857   155.815
9255.50     62.918   156.229
9390.12     62.949   156.365
9526.70     62.925   156.374
9665.27     62.804   156.279
9805.86     62.614   156.703
9948.49     62.443   157.372
10093.2     62.207   158.089
10240.0     61.986   159.500
10388.9     61.821   160.941
10540.1     61.664   162.312
10693.4     61.507   163.612
10848.9     61.315   165.243
11006.7     61.154   167.119
11166.8     60.980   169.140
11329.2     60.836   171.412
11494.0     60.711   173.522
11661.2     60.597   175.686
11830.8     60.497   177.768
12002.9     60.395  -179.942
12177.5     60.347  -177.508
12354.6     60.326  -175.143
12534.3     60.369  -172.931
12716.6     60.472  -171.885
12901.6     60.381  -171.973
13089.2     60.125  -171.864
13279.6     59.701  -171.281
13472.8     59.255  -169.281
13668.8     58.836  -166.748
13867.6     58.423  -163.623
14069.3     58.109  -159.985
14273.9     57.857  -156.871
14481.5     57.596  -153.940
14692.2     57.264  -151.331
14905.9     56.791  -148.358
15122.7     56.183  -144.101
15342.7     55.548  -138.552
15565.8     55.043  -131.310
15792.2     54.791  -122.958
16021.9     54.881  -114.938
16255.0     55.254  -107.334
16491.4     55.772  -101.298
16731.3     56.345   -96.844
16974.7     56.844   -93.935
17221.6     57.190   -91.978
17472.1     57.359   -90.523
17726.2     57.352   -88.776
17984.0     57.215   -86.759
18245.6     56.972   -84.069
18511.0     56.673   -80.640
18780.2     56.385   -76.221
19053.4     56.203   -70.754
19330.5     56.221   -64.638
19611.7     56.503   -58.736
19897.0     56.995   -53.771
20186.4     57.580   -50.635
20480.0     58.083   -49.374
20777.9     58.391   -49.382
21080.1     58.478   -49.794
21386.7     58.411   -49.917
21697.8     58.226   -49.684
22013.4     57.941   -49.223
22333.6     57.573   -48.398
22658.4     57.084   -47.462
22988.0     56.403   -46.332
23322.4     55.410   -44.310
23661.6     54.070   -38.797
