Freq[Hz]     dBSPL  Phase[Deg]
5.00000    -18.196   -12.892
5.07273    -17.839   -12.982
5.14651    -17.450   -13.080
5.22137    -17.015   -13.190
5.29732    -16.561   -13.305
5.37437    -16.086   -13.426
5.45254    -15.611   -13.549
5.53185    -15.136   -13.673
5.61231    -14.661   -13.799
5.69394    -14.186   -13.927
5.77676    -13.711   -14.057
5.86079    -13.236   -14.188
5.94604    -12.761   -14.322
6.03252    -12.286   -14.457
6.12027    -11.811   -14.594
6.20929    -11.336   -14.733
6.29961    -10.860   -14.874
6.39124    -10.385   -15.016
6.48420     -9.910   -15.161
6.57851     -9.435   -15.308
6.67420     -8.959   -15.457
6.77128     -8.484   -15.608
6.86977     -8.009   -15.761
6.96969     -7.533   -15.916
7.07107     -7.058   -16.074
7.17392     -6.582   -16.234
7.27827     -6.107   -16.396
7.38413     -5.631   -16.561
7.49154     -5.155   -16.728
7.60050     -4.680   -16.898
7.71105     -4.204   -17.070
7.82321     -3.728   -17.245
7.93701     -3.252   -17.423
8.05245     -2.776   -17.604
8.16958     -2.300   -17.787
8.28841     -1.824   -17.973
8.40896     -1.348   -18.162
8.53128     -0.872   -18.354
8.65537     -0.396   -18.549
8.78126      0.081   -18.747
8.90899      0.557   -18.947
9.03857      1.033   -19.151
9.17004      1.510   -19.358
9.30342      1.986   -19.568
9.43874      2.463   -19.781
9.57603      2.939   -19.998
9.71532      3.416   -20.217
9.85663      3.892   -20.440
10.0000      4.369   -20.666
10.1455      4.846   -20.895
10.2930      5.323   -21.128
10.4427      5.800   -21.364
10.5946      6.277   -21.603
10.7487      6.754   -21.847
10.9051      7.231   -22.093
11.0637      7.708   -22.344
11.2246      8.186   -22.598
11.3879      8.663   -22.856
11.5535      9.141   -23.119
11.7216      9.618   -23.385
11.8921     10.096   -23.655
12.0650     10.574   -23.930
12.2405     11.052   -24.208
12.4186     11.530   -24.491
12.5992     12.008   -24.779
12.7825     12.487   -25.071
12.9684     12.965   -25.367
13.1570     13.444   -25.668
13.3484     13.922   -25.974
13.5426     14.401   -26.285
13.7395     14.880   -26.600
13.9394     15.359   -26.920
14.1421     15.838   -27.245
14.3478     16.317   -27.575
14.5565     16.797   -27.910
14.7683     17.277   -28.250
14.9831     17.756   -28.596
15.2010     18.236   -28.947
15.4221     18.716   -29.304
15.6464     19.197   -29.666
15.8740     19.677   -30.034
16.1049     20.158   -30.408
16.3392     20.639   -30.788
16.5768     21.120   -31.174
16.8179     21.601   -31.567
17.0626     22.082   -31.965
17.3107     22.564   -32.370
17.5625     23.046   -32.782
17.8180     23.528   -33.200
18.0771     24.010   -33.625
18.3401     24.492   -34.057
18.6068     24.975   -34.496
18.8775     25.458   -34.942
19.1521     25.941   -35.396
19.4306     26.425   -35.857
19.7133     26.908   -36.336
20.0000     27.391   -36.846
20.2909     27.869   -37.385
20.5860     28.340   -37.921
20.8855     28.798   -38.349
21.1893     29.241   -38.631
21.4975     29.675   -38.866
21.8102     30.110   -39.132
22.1274     30.555   -39.455
22.4492     31.019   -39.791
22.7758     31.507   -40.083
23.1071     32.014   -40.405
23.4432     32.536   -40.801
23.7841     33.064   -41.393
24.1301     33.590   -42.350
24.4811     34.106   -43.527
24.8372     34.605   -44.692
25.1984     35.088   -45.732
25.5649     35.561   -46.569
25.9368     36.030   -47.296
26.3141     36.502   -48.044
26.6968     36.981   -48.886
27.0851     37.465   -49.868
27.4791     37.952   -50.961
27.8788     38.437   -52.080
28.2843     38.919   -53.132
28.6957     39.397   -54.121
29.1131     39.874   -55.108
29.5365     40.352   -56.135
29.9661     40.831   -57.259
30.4020     41.308   -58.406
30.8442     41.784   -59.541
31.2929     42.260   -60.692
31.7480     42.735   -61.896
32.2098     43.208   -63.236
32.6783     43.677   -64.722
33.1536     44.132   -66.070
33.6359     44.578   -67.069
34.1251     45.027   -67.631
34.6215     45.505   -68.105
35.1250     46.020   -68.834
35.6359     46.562   -70.000
36.1543     47.105   -71.432
36.6802     47.640   -72.964
37.2137     48.162   -74.448
37.7550     48.674   -75.864
38.3041     49.187   -77.340
38.8613     49.709   -79.092
39.4265     50.227   -80.955
40.0000     50.737   -82.726
40.5818     51.239   -84.261
41.1721     51.741   -85.707
41.7710     52.252   -87.253
42.3785     52.772   -89.068
42.9949     53.295   -91.182
43.6203     53.811   -93.511
44.2548     54.312   -95.918
44.8985     54.791   -98.241
45.5515     55.251  -100.375
46.2141     55.701  -102.339
46.8863     56.149  -104.226
47.5683     56.604  -106.123
48.2602     57.067  -108.105
48.9621     57.539  -110.196
49.6743     58.015  -112.373
50.3968     58.494  -114.623
51.1299     58.973  -116.927
51.8736     59.450  -119.269
52.6281     59.922  -121.666
53.3936     60.389  -124.138
54.1702     60.850  -126.693
54.9581     61.302  -129.314
55.7575     61.747  -131.997
56.5685     62.184  -134.747
57.3914     62.611  -137.533
58.2261     63.030  -140.333
59.0730     63.442  -143.163
59.9323     63.846  -146.051
60.8040     64.241  -149.000
61.6884     64.627  -151.997
62.5857     65.005  -155.044
63.4960     65.374  -158.142
64.4196     65.730  -161.286
65.3566     66.070  -164.474
66.3073     66.394  -167.701
67.2717     66.706  -170.951
68.2502     67.009  -174.202
69.2429     67.307  -177.451
70.2501     67.599   179.285
71.2719     67.880   175.977
72.3086     68.143   172.632
73.3603     68.385   169.286
74.4274     68.607   165.956
75.5099     68.814   162.653
76.6083     69.009   159.372
77.7226     69.193   156.099
78.8531     69.364   152.838
80.0000     69.522   149.589
81.1636     69.665   146.378
82.3442     69.795   143.238
83.5419     69.914   140.160
84.7570     70.022   137.137
85.9899     70.122   134.171
87.2406     70.214   131.257
88.5096     70.298   128.389
89.7970     70.376   125.571
91.1031     70.447   122.799
92.4282     70.516   120.069
93.7726     70.579   117.381
95.1366     70.637   114.734
96.5204     70.689   112.119
97.9243     70.735   109.536
99.3486     70.774   106.992
100.794     70.807   104.491
102.260     70.834   102.034
103.747     70.855    99.635
105.256     70.873    97.304
106.787     70.892    95.022
108.340     70.911    92.761
109.916     70.928    90.519
111.515     70.939    88.303
113.137     70.944    86.120
114.783     70.946    83.987
116.452     70.949    81.895
118.146     70.953    79.808
119.865     70.956    77.710
121.608     70.950    75.604
123.377     70.932    73.523
125.171     70.903    71.519
126.992     70.869    69.606
128.839     70.837    67.769
130.713     70.809    65.980
132.615     70.786    64.197
134.543     70.760    62.405
136.500     70.727    60.628
138.486     70.687    58.905
140.500     70.645    57.266
142.544     70.605    55.711
144.617     70.572    54.222
146.721     70.548    52.758
148.855     70.530    51.285
151.020     70.514    49.787
153.217     70.495    48.272
155.445     70.472    46.767
157.706     70.447    45.283
160.000     70.418    43.820
162.327     70.389    42.395
164.688     70.361    41.009
167.084     70.335    39.652
169.514     70.315    38.315
171.980     70.299    36.967
174.481     70.281    35.587
177.019     70.259    34.194
179.594     70.230    32.804
182.206     70.195    31.442
184.856     70.158    30.135
187.545     70.125    28.870
190.273     70.094    27.625
193.041     70.066    26.401
195.849     70.042    25.193
198.697     70.023    23.975
201.587     70.008    22.706
204.520     69.989    21.362
207.494     69.955    19.980
210.512     69.902    18.637
213.574     69.837    17.415
216.681     69.771    16.337
219.833     69.719    15.346
223.030     69.681    14.377
226.274     69.657    13.371
229.565     69.639    12.300
232.905     69.618    11.204
236.292     69.598    10.117
239.729     69.579     9.025
243.216     69.561     7.902
246.754     69.537     6.748
250.343     69.504     5.595
253.984     69.466     4.485
257.678     69.426     3.438
261.426     69.396     2.452
265.229     69.382     1.444
269.087     69.375     0.321
273.001     69.362    -0.893
276.972     69.335    -2.145
281.000     69.292    -3.355
285.088     69.244    -4.429
289.234     69.209    -5.416
293.441     69.191    -6.404
297.709     69.185    -7.467
302.040     69.180    -8.628
306.433     69.172    -9.838
310.890     69.163   -11.122
315.412     69.142   -12.515
320.000     69.106   -13.967
324.655     69.049   -15.473
329.377     68.967   -16.946
334.168     68.874   -18.262
339.028     68.786   -19.469
343.959     68.710   -20.670
348.962     68.636   -21.938
354.038     68.542   -23.275
359.188     68.424   -24.544
364.412     68.292   -25.659
369.713     68.166   -26.645
375.090     68.052   -27.543
380.546     67.953   -28.426
386.081     67.864   -29.362
391.697     67.764   -30.359
397.394     67.650   -31.361
403.175     67.522   -32.321
409.039     67.372   -33.172
414.989     67.213   -33.788
421.025     67.071   -34.126
427.149     66.966   -34.266
433.362     66.915   -34.358
439.665     66.914   -34.672
446.060     66.923   -35.333
452.548     66.912   -36.147
459.131     66.890   -36.966
465.809     66.877   -37.832
472.584     66.874   -38.791
479.458     66.878   -39.935
486.432     66.866   -41.400
493.507     66.789   -43.067
500.686     66.644   -44.563
507.968     66.465   -45.680
515.357     66.273   -46.410
522.853     66.109   -46.724
530.458     66.015   -46.796
538.174     65.992   -46.975
546.002     66.032   -47.435
553.943     66.115   -48.420
562.001     66.176   -50.180
570.175     66.134   -52.573
578.469     65.938   -55.008
586.883     65.615   -56.739
595.419     65.259   -57.523
604.080     64.968   -57.502
612.866     64.816   -57.156
621.780     64.770   -57.336
630.824     64.716   -58.140
640.000     64.592   -59.088
649.309     64.402   -59.829
658.753     64.211   -59.974
668.335     64.102   -59.740
678.056     64.072   -59.809
687.919     64.066   -60.298
697.925     64.049   -61.117
708.077     63.998   -62.445
718.376     63.846   -64.195
728.825     63.525   -65.587
739.426     63.141   -65.902
750.181     62.831   -65.273
761.093     62.625   -64.217
772.163     62.488   -63.141
783.394     62.410   -61.917
794.789     62.423   -60.676
806.349     62.524   -59.747
818.078     62.696   -59.162
829.977     62.934   -59.214
842.050     63.134   -60.198
854.298     63.202   -61.500
866.724     63.191   -62.724
879.330     63.114   -63.870
892.120     62.962   -64.328
905.097     62.857   -63.944
918.262     62.865   -63.215
931.618     62.996   -62.426
945.169     63.239   -62.059
958.917     63.517   -62.486
972.864     63.805   -63.547
987.015     64.081   -65.057
1001.37     64.295   -66.799
1015.94     64.498   -68.433
1030.71     64.719   -70.205
1045.71     64.889   -72.407
1060.92     65.013   -74.785
1076.35     65.125   -77.339
1092.00     65.192   -80.117
1107.89     65.203   -82.906
1124.00     65.173   -85.702
1140.35     65.087   -88.439
1156.94     64.937   -90.970
1173.77     64.733   -92.847
1190.84     64.558   -93.849
1208.16     64.467   -94.340
1225.73     64.472   -94.528
1243.56     64.611   -94.940
1261.65     64.825   -96.089
1280.00     65.058   -97.993
1298.62     65.245  -100.901
1317.51     65.283  -104.089
1336.67     65.244  -106.869
1356.11     65.197  -109.555
1375.84     65.094  -111.971
1395.85     65.019  -114.026
1416.15     64.963  -116.138
1436.75     64.862  -118.157
1457.65     64.762  -119.849
1478.85     64.715  -121.122
1500.36     64.774  -122.429
1522.19     64.905  -124.221
1544.33     65.019  -126.534
1566.79     65.119  -129.310
1589.58     65.156  -132.338
1612.70     65.168  -135.158
1636.16     65.245  -138.145
1659.95     65.316  -141.576
1684.10     65.356  -145.375
1708.60     65.329  -149.700
1733.45     65.124  -154.063
1758.66     64.791  -157.362
1784.24     64.423  -159.638
1810.19     64.083  -160.997
1836.52     63.885  -161.668
1863.24     63.833  -162.666
1890.34     63.900  -163.857
1917.83     64.011  -165.543
1945.73     64.094  -167.895
1974.03     64.155  -170.411
2002.74     64.149  -173.355
2031.87     64.112  -176.489
2061.43     64.039  -179.366
2091.41     63.911   177.859
2121.83     63.800   175.431
2152.69     63.670   173.420
2184.01     63.576   171.530
2215.77     63.544   169.764
2248.00     63.584   167.693
2280.70     63.664   165.104
2313.87     63.737   162.075
2347.53     63.780   158.479
2381.68     63.749   154.793
2416.32     63.599   151.453
2451.46     63.385   148.639
2487.12     63.184   146.605
2523.30     63.051   144.848
2560.00     62.959   143.577
2597.24     63.012   141.866
2635.01     63.078   139.425
2673.34     63.057   136.384
2712.23     63.002   132.635
2751.68     62.809   128.445
2791.70     62.517   124.881
2832.31     62.274   122.717
2873.50     62.091   121.475
2915.30     62.099   120.595
2957.70     62.212   120.073
3000.72     62.307   118.953
3044.37     62.406   117.250
3088.65     62.358   114.896
3133.58     62.148   113.366
3179.16     62.224   112.783
3225.40     62.350   110.407
3272.31     62.368   108.165
3319.91     62.424   106.415
3368.20     62.552   104.158
3417.19     62.629   101.530
3466.89     62.660    99.011
3517.32     62.685    96.074
3568.48     62.565    92.976
3620.39     62.373    90.825
3673.05     62.265    88.936
3726.47     62.088    86.821
3780.67     61.986    85.385
3835.67     61.940    83.165
3891.46     61.750    81.149
3948.06     61.649    79.880
4005.49     61.537    78.165
4063.75     61.415    77.234
4122.86     61.459    75.874
4182.82     61.379    73.340
4243.66     61.243    70.942
4305.39     61.026    68.493
4368.01     60.684    66.706
4431.55     60.398    65.541
4496.01     60.177    64.800
4561.40     60.004    63.955
4627.75     59.842    62.790
4695.06     59.655    61.963
4763.35     59.403    61.200
4832.64     59.131    61.286
4902.93     58.994    61.842
4974.24     58.954    62.564
5046.60     59.117    63.314
5120.00     59.415    62.266
5194.47     59.638    59.903
5270.03     59.734    56.153
5346.68     59.521    51.536
5424.45     59.069    48.009
5503.35     58.471    45.674
5583.40     57.802    45.132
5664.61     57.312    45.583
5747.01     56.897    46.293
5830.60     56.540    47.614
5915.41     56.318    49.548
6001.45     56.174    50.976
6088.74     56.129    51.965
6177.30     56.087    52.132
6267.15     55.920    50.956
6358.31     55.631    49.992
6450.80     55.128    50.077
6544.62     54.600    50.734
6639.82     54.067    54.139
6736.40     53.678    57.610
6834.38     53.518    60.958
6933.79     53.442    64.868
7034.64     53.524    67.444
7136.96     53.782    68.884
7240.77     53.964    70.173
7346.09     54.117    69.883
7452.94     54.169    69.541
7561.35     54.103    69.187
7671.33     54.021    68.583
7782.91     53.944    68.237
7896.12     53.923    68.762
8010.97     53.971    69.291
8127.49     53.989    69.817
8245.71     53.953    70.282
8365.65     53.831    71.083
8487.33     53.719    72.447
8610.78     53.608    74.521
8736.03     53.505    77.598
8863.09     53.660    81.550
8992.01     54.033    84.828
9122.80     54.506    86.632
9255.50     55.017    86.352
9390.12     55.346    83.499
9526.70     55.461    79.091
9665.27     55.216    73.710
9805.86     54.583    68.922
9948.49     53.786    66.806
10093.2     52.912    67.682
10240.0     52.260    71.201
10388.9     52.003    75.389
10540.1     52.037    79.231
10693.4     52.194    81.473
10848.9     52.126    82.684
11006.7     51.909    84.467
11166.8     51.631    86.661
11329.2     51.299    89.612
11494.0     51.069    93.361
11661.2     50.971    97.965
11830.8     51.068   103.161
12002.9     51.438   107.897
12177.5     52.008   112.026
12354.6     52.698   114.411
12534.3     53.390   114.719
12716.6     54.027   113.427
12901.6     54.408   110.772
13089.2     54.587   108.745
13279.6     54.752   107.042
13472.8     54.893   105.027
13668.8     54.938   102.307
13867.6     54.874    99.078
14069.3     54.593    95.829
14273.9     54.203    93.206
14481.5     53.675    91.402
14692.2     53.108    90.665
14905.9     52.572    90.950
15122.7     52.079    91.640
15342.7     51.709    91.837
15565.8     51.345    91.163
15792.2     50.806    89.255
16021.9     50.078    87.758
16255.0     49.025    87.094
16491.4     47.816    88.496
16731.3     46.448    92.615
16974.7     45.084    99.781
17221.6     44.139   110.713
17472.1     43.629   124.236
17726.2     43.775   138.632
17984.0     44.716   151.823
18245.6     46.031   160.799
18511.0     47.240   165.065
18780.2     48.270   165.158
19053.4     49.075   163.210
19330.5     49.597   160.177
19611.7     49.956   156.906
19897.0     50.194   153.728
20186.4     50.221   150.160
20480.0     50.093   146.623
20777.9     49.801   144.011
21080.1     49.353   142.410
21386.7     48.892   142.440
21697.8     48.477   143.759
22013.4     48.137   145.221
22333.6     47.901   146.451
22658.4     47.668   146.445
22988.0     47.208   144.792
23322.4     46.253   143.191
23661.6     44.663   144.810
