Freq[Hz]     dBSPL  Phase[Deg]
5.00000    -18.017   -12.524
5.07273    -17.660   -12.615
5.14651    -17.272   -12.715
5.22137    -16.837   -12.826
5.29732    -16.384   -12.943
5.37437    -15.910   -13.066
5.45254    -15.436   -13.191
5.53185    -14.962   -13.318
5.61231    -14.488   -13.446
5.69394    -14.014   -13.576
5.77676    -13.540   -13.708
5.86079    -13.066   -13.842
5.94604    -12.592   -13.977
6.03252    -12.118   -14.114
6.12027    -11.644   -14.253
6.20929    -11.170   -14.393
6.29961    -10.696   -14.536
6.39124    -10.221   -14.680
6.48420     -9.747   -14.827
6.57851     -9.273   -14.975
6.67420     -8.799   -15.125
6.77128     -8.324   -15.278
6.86977     -7.850   -15.433
6.96969     -7.376   -15.590
7.07107     -6.901   -15.749
7.17392     -6.427   -15.910
7.27827     -5.952   -16.074
7.38413     -5.477   -16.241
7.49154     -5.002   -16.410
7.60050     -4.528   -16.581
7.71105     -4.053   -16.756
7.82321     -3.578   -16.932
7.93701     -3.103   -17.112
8.05245     -2.628   -17.295
8.16958     -2.153   -17.480
8.28841     -1.678   -17.668
8.40896     -1.202   -17.859
8.53128     -0.727   -18.054
8.65537     -0.252   -18.251
8.78126      0.223   -18.451
8.90899      0.699   -18.654
9.03857      1.174   -18.861
9.17004      1.650   -19.070
9.30342      2.125   -19.283
9.43874      2.601   -19.498
9.57603      3.076   -19.717
9.71532      3.552   -19.939
9.85663      4.027   -20.165
10.0000      4.503   -20.393
10.1455      4.979   -20.625
10.2930      5.455   -20.861
10.4427      5.931   -21.100
10.5946      6.407   -21.342
10.7487      6.883   -21.588
10.9051      7.359   -21.838
11.0637      7.835   -22.091
11.2246      8.312   -22.348
11.3879      8.788   -22.609
11.5535      9.265   -22.874
11.7216      9.742   -23.144
11.8921     10.219   -23.417
12.0650     10.696   -23.695
12.2405     11.173   -23.977
12.4186     11.650   -24.263
12.5992     12.127   -24.554
12.7825     12.604   -24.849
12.9684     13.082   -25.149
13.1570     13.560   -25.454
13.3484     14.037   -25.763
13.5426     14.515   -26.077
13.7395     14.993   -26.396
13.9394     15.471   -26.720
14.1421     15.949   -27.048
14.3478     16.428   -27.382
14.5565     16.906   -27.721
14.7683     17.385   -28.065
14.9831     17.864   -28.415
15.2010     18.343   -28.770
15.4221     18.822   -29.131
15.6464     19.301   -29.497
15.8740     19.781   -29.869
16.1049     20.260   -30.247
16.3392     20.740   -30.632
16.5768     21.220   -31.022
16.8179     21.701   -31.419
17.0626     22.181   -31.822
17.3107     22.662   -32.231
17.5625     23.143   -32.648
17.8180     23.624   -33.071
18.0771     24.105   -33.500
18.3401     24.587   -33.937
18.6068     25.068   -34.381
18.8775     25.550   -34.832
19.1521     26.033   -35.291
19.4306     26.515   -35.757
19.7133     26.997   -36.252
20.0000     27.475   -36.803
20.2909     27.946   -37.418
20.5860     28.403   -38.047
20.8855     28.843   -38.495
21.1893     29.266   -38.678
21.4975     29.684   -38.722
21.8102     30.113   -38.759
22.1274     30.563   -38.896
22.4492     31.042   -39.180
22.7758     31.551   -39.568
23.1071     32.076   -40.073
23.4432     32.607   -40.660
23.7841     33.132   -41.399
24.1301     33.644   -42.437
24.4811     34.140   -43.635
24.8372     34.623   -44.769
25.1984     35.097   -45.752
25.5649     35.568   -46.537
25.9368     36.041   -47.233
26.3141     36.517   -47.982
26.6968     36.996   -48.844
27.0851     37.474   -49.852
27.4791     37.952   -50.957
27.8788     38.429   -52.066
28.2843     38.904   -53.087
28.6957     39.380   -54.034
29.1131     39.859   -54.981
29.5365     40.341   -55.983
29.9661     40.825   -57.105
30.4020     41.307   -58.283
30.8442     41.784   -59.474
31.2929     42.253   -60.690
31.7480     42.713   -61.920
32.2098     43.169   -63.210
32.6783     43.625   -64.564
33.1536     44.086   -65.753
33.6359     44.557   -66.657
34.1251     45.039   -67.267
34.6215     45.536   -67.904
35.1250     46.049   -68.802
35.6359     46.570   -70.035
36.1543     47.099   -71.420
36.6802     47.634   -72.868
37.2137     48.165   -74.319
37.7550     48.689   -75.794
38.3041     49.205   -77.395
38.8613     49.713   -79.242
39.4265     50.216   -81.113
40.0000     50.717   -82.829
40.5818     51.220   -84.321
41.1721     51.729   -85.782
41.7710     52.240   -87.388
42.3785     52.751   -89.264
42.9949     53.259   -91.395
43.6203     53.760   -93.681
44.2548     54.250   -95.995
44.8985     54.729   -98.212
45.5515     55.196  -100.258
46.2141     55.657  -102.174
46.8863     56.118  -104.055
47.5683     56.582  -105.974
48.2602     57.051  -107.991
48.9621     57.524  -110.118
49.6743     58.001  -112.326
50.3968     58.480  -114.603
51.1299     58.958  -116.931
51.8736     59.433  -119.296
52.6281     59.903  -121.709
53.3936     60.367  -124.185
54.1702     60.825  -126.733
54.9581     61.277  -129.344
55.7575     61.721  -132.015
56.5685     62.158  -134.753
57.3914     62.589  -137.534
58.2261     63.011  -140.337
59.0730     63.426  -143.177
59.9323     63.833  -146.080
60.8040     64.230  -149.045
61.6884     64.617  -152.059
62.5857     64.995  -155.119
63.4960     65.364  -158.232
64.4196     65.720  -161.390
65.3566     66.058  -164.585
66.3073     66.381  -167.818
67.2717     66.691  -171.070
68.2502     66.992  -174.318
69.2429     67.288  -177.567
70.2501     67.578   179.165
71.2719     67.857   175.853
72.3086     68.117   172.511
73.3603     68.358   169.178
74.4274     68.582   165.867
75.5099     68.790   162.587
76.6083     68.986   159.329
77.7226     69.170   156.077
78.8531     69.341   152.842
80.0000     69.499   149.630
81.1636     69.644   146.472
82.3442     69.781   143.391
83.5419     69.911   140.356
84.7570     70.034   137.342
85.9899     70.148   134.347
87.2406     70.251   131.375
88.5096     70.342   128.436
89.7970     70.423   125.550
91.1031     70.497   122.722
92.4282     70.566   119.940
93.7726     70.629   117.202
95.1366     70.685   114.508
96.5204     70.735   111.855
97.9243     70.778   109.245
99.3486     70.814   106.687
100.794     70.846   104.178
102.260     70.874   101.711
103.747     70.898    99.289
105.256     70.917    96.915
106.787     70.934    94.574
108.340     70.948    92.256
109.916     70.957    89.970
111.515     70.959    87.725
113.137     70.955    85.536
114.783     70.950    83.420
116.452     70.947    81.353
118.146     70.948    79.292
119.865     70.947    77.221
121.608     70.940    75.142
123.377     70.922    73.082
125.171     70.892    71.095
126.992     70.858    69.198
128.839     70.825    67.378
130.713     70.795    65.613
132.615     70.770    63.869
134.543     70.746    62.134
136.500     70.720    60.422
138.486     70.694    58.738
140.500     70.667    57.082
142.544     70.639    55.466
144.617     70.612    53.894
146.721     70.590    52.350
148.855     70.572    50.813
151.020     70.557    49.263
153.217     70.539    47.689
155.445     70.516    46.100
157.706     70.484    44.521
160.000     70.443    42.989
162.327     70.397    41.545
164.688     70.356    40.184
167.084     70.325    38.860
169.514     70.302    37.535
171.980     70.284    36.182
174.481     70.263    34.789
177.019     70.235    33.389
179.594     70.199    32.028
182.206     70.160    30.735
184.856     70.125    29.506
187.545     70.100    28.307
190.273     70.081    27.095
193.041     70.065    25.855
195.849     70.049    24.594
198.697     70.032    23.313
201.587     70.010    22.008
204.520     69.983    20.685
207.494     69.948    19.368
210.512     69.904    18.089
213.574     69.854    16.878
216.681     69.799    15.748
219.833     69.745    14.705
223.030     69.698    13.751
226.274     69.667    12.828
229.565     69.649    11.889
232.905     69.645    10.941
236.292     69.659     9.945
239.729     69.683     8.814
243.216     69.700     7.526
246.754     69.700     6.136
250.343     69.676     4.706
253.984     69.627     3.329
257.678     69.560     2.126
261.426     69.499     1.111
265.229     69.462     0.170
269.087     69.447    -0.839
273.001     69.441    -1.993
276.972     69.424    -3.258
281.000     69.391    -4.509
285.088     69.355    -5.667
289.234     69.326    -6.768
293.441     69.317    -7.909
297.709     69.314    -9.205
302.040     69.291   -10.660
306.433     69.240   -12.117
310.890     69.165   -13.435
315.412     69.087   -14.564
320.000     69.030   -15.572
324.655     68.998   -16.631
329.377     68.980   -17.835
334.168     68.963   -19.209
339.028     68.927   -20.758
343.959     68.858   -22.382
348.962     68.755   -23.927
354.038     68.627   -25.301
359.188     68.488   -26.472
364.412     68.356   -27.435
369.713     68.253   -28.272
375.090     68.178   -29.161
380.546     68.110   -30.191
386.081     68.039   -31.269
391.697     67.963   -32.379
397.394     67.882   -33.593
403.175     67.788   -34.884
409.039     67.664   -36.208
414.989     67.504   -37.473
421.025     67.309   -38.439
427.149     67.117   -38.956
433.362     66.975   -39.153
439.665     66.905   -39.308
446.060     66.898   -39.732
452.548     66.909   -40.603
459.131     66.891   -41.805
465.809     66.828   -43.181
472.584     66.705   -44.507
479.458     66.537   -45.409
486.432     66.391   -45.830
493.507     66.297   -46.051
500.686     66.263   -46.284
507.968     66.289   -46.793
515.357     66.318   -47.851
522.853     66.299   -49.272
530.458     66.233   -50.733
538.174     66.130   -52.121
546.002     66.023   -53.287
553.943     65.967   -54.529
562.001     65.914   -56.339
570.175     65.785   -58.496
578.469     65.559   -60.586
586.883     65.233   -62.190
595.419     64.868   -62.911
604.080     64.560   -62.775
612.866     64.375   -62.174
621.780     64.350   -61.843
630.824     64.413   -62.297
640.000     64.447   -63.463
649.309     64.421   -65.102
658.753     64.337   -66.952
668.335     64.174   -68.743
678.056     63.963   -70.267
687.919     63.754   -71.669
697.925     63.532   -73.112
708.077     63.270   -74.618
718.376     62.946   -76.334
728.825     62.509   -77.663
739.426     62.053   -78.076
750.181     61.633   -77.930
761.093     61.239   -77.267
772.163     60.860   -76.306
783.394     60.460   -74.987
794.789     60.105   -73.013
806.349     59.926   -70.600
818.078     59.939   -68.214
829.977     60.084   -66.495
842.050     60.206   -65.769
854.298     60.218   -65.449
866.724     60.194   -65.301
879.330     60.133   -65.417
892.120     60.005   -65.018
905.097     59.955   -63.665
918.262     60.093   -61.930
931.618     60.364   -60.356
945.169     60.668   -59.315
958.917     60.979   -59.025
972.864     61.282   -59.477
987.015     61.554   -60.241
1001.37     61.840   -61.095
1015.94     62.179   -62.052
1030.71     62.535   -63.295
1045.71     62.838   -65.127
1060.92     63.060   -67.405
1076.35     63.215   -69.928
1092.00     63.336   -72.739
1107.89     63.425   -75.666
1124.00     63.431   -78.726
1140.35     63.359   -81.760
1156.94     63.211   -84.642
1173.77     62.956   -86.887
1190.84     62.687   -87.881
1208.16     62.531   -88.001
1225.73     62.519   -87.650
1243.56     62.700   -87.321
1261.65     63.017   -87.834
1280.00     63.357   -89.334
1298.62     63.660   -91.828
1317.51     63.835   -94.846
1336.67     63.908   -97.613
1356.11     63.992  -100.319
1375.84     64.061  -103.205
1395.85     64.128  -106.153
1416.15     64.177  -109.349
1436.75     64.138  -112.485
1457.65     64.026  -115.359
1478.85     63.896  -117.877
1500.36     63.802  -120.079
1522.19     63.769  -122.593
1544.33     63.742  -125.545
1566.79     63.660  -128.380
1589.58     63.544  -130.826
1612.70     63.458  -132.495
1636.16     63.500  -134.034
1659.95     63.660  -135.979
1684.10     63.879  -138.744
1708.60     64.059  -142.623
1733.45     64.125  -147.203
1758.66     64.051  -151.707
1784.24     63.904  -156.263
1810.19     63.714  -160.549
1836.52     63.536  -164.564
1863.24     63.320  -168.421
1890.34     63.103  -172.052
1917.83     62.826  -175.114
1945.73     62.524  -177.973
1974.03     62.255   179.551
2002.74     62.002   177.463
2031.87     61.916   175.360
2061.43     61.956   173.211
2091.41     62.016   170.811
2121.83     62.182   167.581
2152.69     62.271   163.696
2184.01     62.215   158.955
2215.77     62.084   154.537
2248.00     61.860   150.618
2280.70     61.606   146.877
2313.87     61.340   143.974
2347.53     61.151   141.695
2381.68     61.073   139.107
2416.32     61.017   135.965
2451.46     60.918   132.758
2487.12     60.831   129.562
2523.30     60.766   126.056
2560.00     60.679   122.637
2597.24     60.589   119.334
2635.01     60.578   115.960
2673.34     60.614   111.946
2712.23     60.573   107.480
2751.68     60.536   102.961
2791.70     60.471    97.775
2832.31     60.278    92.821
2873.50     60.044    88.431
2915.30     59.788    84.165
2957.70     59.440    80.515
3000.72     59.048    77.455
3044.37     58.625    75.138
3088.65     58.147    73.361
3133.58     57.758    73.667
3179.16     57.871    74.040
3225.40     57.943    72.455
3272.31     58.012    71.057
3319.91     58.068    69.265
3368.20     58.033    67.568
3417.19     57.950    66.035
3466.89     57.855    64.249
3517.32     57.807    63.032
3568.48     57.807    62.243
3620.39     57.915    61.319
3673.05     58.227    59.805
3726.47     58.491    57.549
3780.67     58.659    54.239
3835.67     58.742    50.391
3891.46     58.695    47.125
3948.06     58.567    44.649
4005.49     58.526    43.150
4063.75     58.682    41.646
4122.86     58.940    39.131
4182.82     59.269    35.805
4243.66     59.512    31.174
4305.39     59.564    26.165
4368.01     59.495    22.106
4431.55     59.394    18.615
4496.01     59.306    15.676
4561.40     59.325    12.779
4627.75     59.380     9.198
4695.06     59.398     5.263
4763.35     59.300     1.274
4832.64     59.130    -2.946
4902.93     58.811    -6.357
4974.24     58.491    -8.941
5046.60     58.225   -11.089
5120.00     58.045   -12.962
5194.47     57.949   -15.368
5270.03     57.883   -18.182
5346.68     57.743   -21.279
5424.45     57.592   -24.513
5503.35     57.396   -27.577
5583.40     57.145   -30.908
5664.61     56.871   -33.907
5747.01     56.521   -37.004
5830.60     56.066   -39.550
5915.41     55.494   -40.732
6001.45     54.862   -40.715
6088.74     54.345   -38.425
6177.30     54.150   -35.823
6267.15     54.179   -34.532
6358.31     54.297   -33.830
6450.80     54.505   -35.066
6544.62     54.622   -37.253
6639.82     54.569   -39.998
6736.40     54.420   -42.976
6834.38     54.234   -45.405
6933.79     53.999   -47.821
7034.64     53.564   -49.463
7136.96     53.176   -49.364
7240.77     52.961   -48.553
7346.09     52.698   -47.969
7452.94     52.601   -46.481
7561.35     52.633   -45.933
7671.33     52.543   -47.945
7782.91     52.297   -49.496
7896.12     52.143   -50.849
8010.97     52.160   -54.143
8127.49     52.039   -57.316
8245.71     51.946   -59.896
8365.65     51.912   -62.946
8487.33     51.648   -67.020
8610.78     51.278   -70.287
8736.03     50.843   -73.073
8863.09     50.161   -75.517
8992.01     49.259   -74.654
9122.80     48.511   -69.810
9255.50     48.164   -64.526
9390.12     48.152   -59.272
9526.70     48.587   -53.488
9665.27     49.465   -51.349
9805.86     50.274   -52.938
9948.49     51.050   -55.159
10093.2     51.901   -60.217
10240.0     52.472   -68.396
10388.9     52.688   -78.143
10540.1     52.540   -88.824
10693.4     51.743   -98.933
10848.9     50.462  -104.771
11006.7     48.962  -106.758
11166.8     47.388  -103.613
11329.2     46.361   -96.369
11494.0     46.163   -90.594
11661.2     46.397   -87.396
11830.8     46.800   -88.055
12002.9     46.823   -92.888
12177.5     46.320   -95.818
12354.6     45.607   -94.699
12534.3     45.021   -91.315
12716.6     44.645   -87.286
12901.6     44.776   -85.216
13089.2     44.849   -86.493
13279.6     44.568   -88.218
13472.8     44.490   -86.627
13668.8     44.866   -83.513
13867.6     45.524   -81.250
14069.3     46.338   -80.572
14273.9     46.854   -83.455
14481.5     46.987   -89.447
14692.2     46.566   -94.302
14905.9     45.987   -95.833
15122.7     45.572   -95.126
15342.7     45.367   -93.292
15565.8     45.429   -91.846
15792.2     45.514   -91.617
16021.9     45.574   -91.933
16255.0     45.846   -91.239
16491.4     46.476   -91.190
16731.3     47.448   -92.780
16974.7     48.429   -97.238
17221.6     49.132  -105.426
17472.1     49.405  -115.392
17726.2     49.184  -125.556
17984.0     48.628  -134.438
18245.6     47.742  -143.021
18511.0     46.640  -149.719
18780.2     45.324  -155.052
19053.4     43.857  -157.434
19330.5     42.577  -155.400
19611.7     41.799  -151.253
19897.0     41.704  -148.343
20186.4     41.943  -147.768
20480.0     41.899  -151.173
20777.9     41.463  -154.627
21080.1     40.903  -157.632
21386.7     40.177  -160.050
21697.8     39.713  -159.809
22013.4     39.822  -160.332
22333.6     40.117  -164.294
22658.4     40.435  -169.916
22988.0     40.376  -179.118
23322.4     39.702   168.887
23661.6     38.587   158.706
