Freq[Hz]     dBSPL  Phase[Deg]
5.00000    -18.243   -12.927
5.07273    -17.885   -13.017
5.14651    -17.496   -13.116
5.22137    -17.061   -13.226
5.29732    -16.606   -13.341
5.37437    -16.131   -13.463
5.45254    -15.656   -13.586
5.53185    -15.181   -13.711
5.61231    -14.705   -13.838
5.69394    -14.230   -13.966
5.77676    -13.755   -14.096
5.86079    -13.280   -14.228
5.94604    -12.804   -14.362
6.03252    -12.329   -14.498
6.12027    -11.854   -14.635
6.20929    -11.379   -14.775
6.29961    -10.903   -14.916
6.39124    -10.428   -15.059
6.48420     -9.952   -15.204
6.57851     -9.477   -15.352
6.67420     -9.001   -15.501
6.77128     -8.526   -15.652
6.86977     -8.050   -15.806
6.96969     -7.574   -15.962
7.07107     -7.099   -16.120
7.17392     -6.623   -16.281
7.27827     -6.147   -16.443
7.38413     -5.671   -16.609
7.49154     -5.195   -16.777
7.60050     -4.719   -16.947
7.71105     -4.243   -17.120
7.82321     -3.767   -17.296
7.93701     -3.291   -17.474
8.05245     -2.815   -17.655
8.16958     -2.338   -17.839
8.28841     -1.862   -18.026
8.40896     -1.386   -18.215
8.53128     -0.909   -18.408
8.65537     -0.433   -18.603
8.78126      0.044   -18.802
8.90899      0.520   -19.003
9.03857      0.997   -19.208
9.17004      1.473   -19.416
9.30342      1.950   -19.626
9.43874      2.427   -19.840
9.57603      2.904   -20.057
9.71532      3.380   -20.277
9.85663      3.857   -20.501
10.0000      4.334   -20.728
10.1455      4.811   -20.958
10.2930      5.288   -21.191
10.4427      5.766   -21.428
10.5946      6.243   -21.669
10.7487      6.720   -21.913
10.9051      7.198   -22.160
11.0637      7.675   -22.412
11.2246      8.153   -22.667
11.3879      8.630   -22.926
11.5535      9.108   -23.189
11.7216      9.586   -23.456
11.8921     10.064   -23.727
12.0650     10.542   -24.003
12.2405     11.021   -24.282
12.4186     11.499   -24.566
12.5992     11.978   -24.855
12.7825     12.456   -25.148
12.9684     12.935   -25.445
13.1570     13.414   -25.747
13.3484     13.892   -26.054
13.5426     14.372   -26.366
13.7395     14.851   -26.682
13.9394     15.330   -27.003
14.1421     15.809   -27.329
14.3478     16.289   -27.660
14.5565     16.769   -27.996
14.7683     17.249   -28.338
14.9831     17.729   -28.685
15.2010     18.209   -29.037
15.4221     18.689   -29.395
15.6464     19.170   -29.758
15.8740     19.650   -30.128
16.1049     20.131   -30.503
16.3392     20.612   -30.884
16.5768     21.094   -31.271
16.8179     21.575   -31.665
17.0626     22.057   -32.065
17.3107     22.539   -32.471
17.5625     23.021   -32.884
17.8180     23.503   -33.304
18.0771     23.986   -33.730
18.3401     24.468   -34.164
18.6068     24.951   -34.604
18.8775     25.434   -35.052
19.1521     25.918   -35.507
19.4306     26.402   -35.969
19.7133     26.885   -36.450
20.0000     27.368   -36.963
20.2909     27.847   -37.505
20.5860     28.319   -38.043
20.8855     28.778   -38.471
21.1893     29.221   -38.751
21.4975     29.654   -38.983
21.8102     30.089   -39.247
22.1274     30.533   -39.570
22.4492     30.997   -39.908
22.7758     31.485   -40.203
23.1071     31.994   -40.528
23.4432     32.517   -40.924
23.7841     33.046   -41.517
24.1301     33.572   -42.478
24.4811     34.088   -43.661
24.8372     34.587   -44.831
25.1984     35.070   -45.876
25.5649     35.543   -46.715
25.9368     36.011   -47.445
26.3141     36.484   -48.196
26.6968     36.962   -49.041
27.0851     37.447   -50.027
27.4791     37.934   -51.123
27.8788     38.419   -52.246
28.2843     38.900   -53.299
28.6957     39.378   -54.290
29.1131     39.855   -55.279
29.5365     40.333   -56.308
29.9661     40.812   -57.435
30.4020     41.290   -58.587
30.8442     41.766   -59.726
31.2929     42.241   -60.883
31.7480     42.716   -62.090
32.2098     43.189   -63.433
32.6783     43.658   -64.922
33.1536     44.113   -66.273
33.6359     44.558   -67.277
34.1251     45.006   -67.842
34.6215     45.484   -68.319
35.1250     45.999   -69.046
35.6359     46.541   -70.209
36.1543     47.085   -71.640
36.6802     47.620   -73.172
37.2137     48.142   -74.660
37.7550     48.655   -76.084
38.3041     49.168   -77.568
38.8613     49.690   -79.327
39.4265     50.208   -81.195
40.0000     50.718   -82.968
40.5818     51.219   -84.504
41.1721     51.722   -85.951
41.7710     52.232   -87.497
42.3785     52.753   -89.312
42.9949     53.276   -91.427
43.6203     53.793   -93.759
44.2548     54.294   -96.171
44.8985     54.774   -98.502
45.5515     55.235  -100.644
46.2141     55.684  -102.617
46.8863     56.132  -104.512
47.5683     56.587  -106.414
48.2602     57.050  -108.401
48.9621     57.521  -110.496
49.6743     57.997  -112.676
50.3968     58.476  -114.929
51.1299     58.955  -117.236
51.8736     59.432  -119.582
52.6281     59.904  -121.984
53.3936     60.371  -124.461
54.1702     60.832  -127.021
54.9581     61.285  -129.648
55.7575     61.730  -132.337
56.5685     62.166  -135.093
57.3914     62.594  -137.886
58.2261     63.012  -140.691
59.0730     63.424  -143.527
59.9323     63.828  -146.419
60.8040     64.223  -149.373
61.6884     64.609  -152.375
62.5857     64.987  -155.426
63.4960     65.357  -158.529
64.4196     65.713  -161.679
65.3566     66.052  -164.875
66.3073     66.377  -168.110
67.2717     66.688  -171.368
68.2502     66.991  -174.626
69.2429     67.288  -177.879
70.2501     67.581   178.854
71.2719     67.861   175.544
72.3086     68.124   172.197
73.3603     68.367   168.848
74.4274     68.590   165.512
75.5099     68.797   162.202
76.6083     68.992   158.913
77.7226     69.176   155.631
78.8531     69.348   152.362
80.0000     69.506   149.106
81.1636     69.648   145.888
82.3442     69.778   142.743
83.5419     69.897   139.660
84.7570     70.006   136.630
85.9899     70.107   133.658
87.2406     70.199   130.735
88.5096     70.284   127.857
89.7970     70.362   125.027
91.1031     70.433   122.245
92.4282     70.502   119.503
93.7726     70.566   116.804
95.1366     70.623   114.147
96.5204     70.675   111.522
97.9243     70.721   108.930
99.3486     70.760   106.378
100.794     70.793   103.867
102.260     70.820   101.401
103.747     70.842    98.991
105.256     70.860    96.648
106.787     70.878    94.355
108.340     70.897    92.084
109.916     70.913    89.833
111.515     70.924    87.610
113.137     70.929    85.421
114.783     70.932    83.282
116.452     70.935    81.184
118.146     70.940    79.089
119.865     70.944    76.980
121.608     70.939    74.860
123.377     70.922    72.762
125.171     70.893    70.740
126.992     70.859    68.811
128.839     70.827    66.959
130.713     70.799    65.157
132.615     70.775    63.361
134.543     70.750    61.557
136.500     70.717    59.767
138.486     70.677    58.030
140.500     70.635    56.376
142.544     70.594    54.808
144.617     70.561    53.306
146.721     70.538    51.832
148.855     70.520    50.349
151.020     70.505    48.839
153.217     70.486    47.309
155.445     70.463    45.787
157.706     70.438    44.286
160.000     70.410    42.809
162.327     70.380    41.372
164.688     70.352    39.976
167.084     70.328    38.609
169.514     70.309    37.259
171.980     70.294    35.893
174.481     70.277    34.492
177.019     70.256    33.076
179.594     70.227    31.665
182.206     70.192    30.283
184.856     70.155    28.959
187.545     70.122    27.678
190.273     70.093    26.418
193.041     70.066    25.178
195.849     70.043    23.951
198.697     70.026    22.712
201.587     70.013    21.421
204.520     69.996    20.051
207.494     69.964    18.638
210.512     69.913    17.257
213.574     69.849    15.990
216.681     69.783    14.865
219.833     69.727    13.832
223.030     69.686    12.833
226.274     69.659    11.811
229.565     69.639    10.736
232.905     69.619     9.639
236.292     69.601     8.548
239.729     69.586     7.439
243.216     69.572     6.284
246.754     69.551     5.086
250.343     69.520     3.882
253.984     69.481     2.721
257.678     69.440     1.627
261.426     69.407     0.605
265.229     69.391    -0.426
269.087     69.384    -1.569
273.001     69.371    -2.804
276.972     69.346    -4.081
281.000     69.305    -5.323
285.088     69.258    -6.435
289.234     69.224    -7.461
293.441     69.206    -8.488
297.709     69.201    -9.589
302.040     69.195   -10.789
306.433     69.186   -12.030
310.890     69.177   -13.335
315.412     69.160   -14.750
320.000     69.128   -16.232
324.655     69.077   -17.786
329.377     69.000   -19.328
334.168     68.909   -20.723
339.028     68.822   -22.006
343.959     68.746   -23.274
348.962     68.672   -24.608
354.038     68.578   -26.016
359.188     68.458   -27.359
364.412     68.326   -28.547
369.713     68.197   -29.601
375.090     68.082   -30.563
380.546     67.981   -31.512
386.081     67.890   -32.515
391.697     67.789   -33.583
397.394     67.673   -34.661
403.175     67.543   -35.696
409.039     67.392   -36.639
414.989     67.229   -37.366
421.025     67.077   -37.806
427.149     66.959   -38.020
433.362     66.896   -38.152
439.665     66.887   -38.477
446.060     66.894   -39.151
452.548     66.883   -40.010
459.131     66.859   -40.884
465.809     66.842   -41.794
472.584     66.834   -42.781
479.458     66.836   -43.925
486.432     66.831   -45.381
493.507     66.768   -47.083
500.686     66.639   -48.685
507.968     66.471   -49.967
515.357     66.284   -50.909
522.853     66.112   -51.442
530.458     66.000   -51.690
538.174     65.957   -51.987
546.002     65.979   -52.502
553.943     66.056   -53.496
562.001     66.127   -55.302
570.175     66.106   -57.849
578.469     65.928   -60.578
586.883     65.606   -62.701
595.419     65.228   -63.862
604.080     64.898   -64.096
612.866     64.703   -63.855
621.780     64.633   -64.063
630.824     64.573   -64.951
640.000     64.443   -66.107
649.309     64.235   -67.145
658.753     64.005   -67.562
668.335     63.842   -67.479
678.056     63.773   -67.596
687.919     63.743   -68.122
697.925     63.711   -69.041
708.077     63.649   -70.592
718.376     63.471   -72.677
728.825     63.101   -74.431
739.426     62.653   -75.101
750.181     62.254   -74.747
761.093     61.946   -73.800
772.163     61.706   -72.708
783.394     61.527   -71.334
794.789     61.450   -69.781
806.349     61.485   -68.459
818.078     61.609   -67.442
829.977     61.830   -67.046
842.050     62.037   -67.756
854.298     62.101   -69.024
866.724     62.071   -70.278
879.330     61.960   -71.470
892.120     61.735   -71.934
905.097     61.532   -71.299
918.262     61.455   -70.040
931.618     61.533   -68.554
945.169     61.767   -67.451
958.917     62.071   -67.248
972.864     62.399   -67.786
987.015     62.715   -68.859
1001.37     62.961   -70.287
1015.94     63.187   -71.599
1030.71     63.435   -72.979
1045.71     63.646   -74.868
1060.92     63.811   -77.014
1076.35     63.975   -79.341
1092.00     64.110   -81.949
1107.89     64.193   -84.665
1124.00     64.234   -87.483
1140.35     64.215   -90.375
1156.94     64.112   -93.187
1173.77     63.925   -95.358
1190.84     63.744   -96.537
1208.16     63.637   -97.112
1225.73     63.615   -97.281
1243.56     63.743   -97.555
1261.65     63.970   -98.547
1280.00     64.228  -100.306
1298.62     64.460  -103.164
1317.51     64.539  -106.489
1336.67     64.522  -109.432
1356.11     64.493  -112.225
1375.84     64.397  -114.733
1395.85     64.331  -116.782
1416.15     64.294  -118.872
1436.75     64.214  -120.937
1457.65     64.131  -122.702
1478.85     64.094  -124.007
1500.36     64.173  -125.286
1522.19     64.336  -127.043
1544.33     64.491  -129.451
1566.79     64.634  -132.407
1589.58     64.699  -135.693
1612.70     64.722  -138.728
1636.16     64.805  -141.762
1659.95     64.895  -145.123
1684.10     64.970  -148.816
1708.60     64.997  -153.062
1733.45     64.867  -157.562
1758.66     64.603  -161.187
1784.24     64.296  -163.917
1810.19     64.008  -165.816
1836.52     63.832  -167.072
1863.24     63.791  -168.650
1890.34     63.834  -170.362
1917.83     63.893  -172.564
1945.73     63.917  -175.345
1974.03     63.910  -178.109
2002.74     63.854   178.841
2031.87     63.803   175.756
2061.43     63.731   172.950
2091.41     63.623   170.077
2121.83     63.531   167.491
2152.69     63.399   165.110
2184.01     63.283   162.713
2215.77     63.209   160.550
2248.00     63.203   158.292
2280.70     63.250   155.657
2313.87     63.300   152.651
2347.53     63.346   149.054
2381.68     63.337   145.245
2416.32     63.213   141.459
2451.46     63.008   138.130
2487.12     62.800   135.736
2523.30     62.649   133.652
2560.00     62.497   132.015
2597.24     62.503   130.096
2635.01     62.545   127.362
2673.34     62.515   123.893
2712.23     62.487   119.846
2751.68     62.347   115.263
2791.70     62.093   111.302
2832.31     61.828   108.900
2873.50     61.581   107.559
2915.30     61.509   106.875
2957.70     61.524   106.593
3000.72     61.527   105.518
3044.37     61.552   103.869
3088.65     61.445   101.503
3133.58     61.154    99.865
3179.16     61.159    99.625
3225.40     61.276    97.974
3272.31     61.304    96.302
3319.91     61.398    95.291
3368.20     61.611    93.735
3417.19     61.774    91.259
3466.89     61.845    88.754
3517.32     61.917    85.882
3568.48     61.847    82.615
3620.39     61.672    80.255
3673.05     61.613    78.390
3726.47     61.510    75.915
3780.67     61.430    74.213
3835.67     61.444    71.877
3891.46     61.279    69.444
3948.06     61.169    68.166
4005.49     61.116    66.366
4063.75     61.010    65.000
4122.86     61.091    63.422
4182.82     61.090    60.143
4243.66     60.982    56.981
4305.39     60.805    53.716
4368.01     60.482    50.894
4431.55     60.200    48.898
4496.01     59.950    47.315
4561.40     59.734    45.811
4627.75     59.552    43.951
4695.06     59.286    42.434
4763.35     58.975    40.971
4832.64     58.567    40.188
4902.93     58.232    40.446
4974.24     57.986    41.439
5046.60     57.920    43.042
5120.00     58.161    43.758
5194.47     58.448    42.845
5270.03     58.704    40.183
5346.68     58.760    35.772
5424.45     58.512    31.529
5503.35     58.086    27.987
5583.40     57.491    25.796
5664.61     56.937    25.048
5747.01     56.418    25.063
5830.60     55.928    26.101
5915.41     55.548    28.539
6001.45     55.378    30.955
6088.74     55.404    33.148
6177.30     55.516    34.210
6267.15     55.649    33.407
6358.31     55.662    31.752
6450.80     55.427    29.569
6544.62     55.115    27.677
6639.82     54.543    26.963
6736.40     53.978    26.318
6834.38     53.402    26.825
6933.79     52.789    28.548
7034.64     52.475    30.592
7136.96     52.391    33.073
7240.77     52.392    35.708
7346.09     52.690    37.009
7452.94     52.933    37.258
7561.35     53.045    37.111
7671.33     53.165    36.450
7782.91     53.214    35.953
7896.12     53.069    36.786
8010.97     52.903    38.030
8127.49     52.757    39.489
8245.71     52.613    40.730
8365.65     52.499    41.440
8487.33     52.537    41.609
8610.78     52.459    40.862
8736.03     52.113    40.427
8863.09     51.731    41.852
8992.01     51.295    44.658
9122.80     51.040    48.513
9255.50     51.248    52.022
9390.12     51.796    54.041
9526.70     52.583    53.831
9665.27     53.272    50.274
9805.86     53.702    44.881
9948.49     53.823    39.255
10093.2     53.496    34.154
10240.0     52.864    31.591
10388.9     52.114    31.866
10540.1     51.434    34.569
10693.4     50.992    37.597
10848.9     50.654    40.112
11006.7     50.459    42.008
11166.8     50.264    42.856
11329.2     49.921    43.461
11494.0     49.577    44.479
11661.2     49.198    46.046
11830.8     48.783    48.721
12002.9     48.530    53.122
12177.5     48.441    58.189
12354.6     48.626    62.804
12534.3     48.951    66.782
12716.6     49.405    69.301
12901.6     49.722    69.925
13089.2     49.895    71.141
13279.6     50.183    73.270
13472.8     50.680    74.863
13668.8     51.223    74.417
13867.6     51.699    72.709
14069.3     51.994    69.698
14273.9     52.134    66.651
14481.5     52.063    64.002
14692.2     51.946    62.288
14905.9     51.729    61.298
15122.7     51.546    60.802
15342.7     51.477    60.390
15565.8     51.491    59.020
15792.2     51.524    55.960
16021.9     51.385    51.783
16255.0     51.010    46.892
16491.4     50.433    43.025
16731.3     49.556    40.244
16974.7     48.537    38.777
17221.6     47.397    38.167
17472.1     46.111    30.547
17726.2     44.692    12.435
17984.0     43.220   -25.696
18245.6     42.599   -78.062
18511.0     42.895  -133.030
18780.2     43.922   173.696
19053.4     45.458   134.759
19330.5     46.805   113.905
19611.7     47.621   101.120
19897.0     48.014    94.288
20186.4     48.025    87.604
20480.0     47.786    81.456
20777.9     47.309    76.064
21080.1     46.605    71.397
21386.7     45.628    68.938
21697.8     44.490    69.733
22013.4     43.396    74.344
22333.6     42.569    81.840
22658.4     42.384    88.792
22988.0     42.627    92.601
23322.4     42.531    92.720
23661.6     41.774    92.672
