Freq[Hz]     dBSPL  Phase[Deg]
5.00000    -17.805   -12.631
5.07273    -17.449   -12.720
5.14651    -17.062   -12.816
5.22137    -16.628   -12.922
5.29732    -16.176   -13.034
5.37437    -15.703   -13.151
5.45254    -15.230   -13.270
5.53185    -14.757   -13.390
5.61231    -14.284   -13.513
5.69394    -13.811   -13.637
5.77676    -13.338   -13.762
5.86079    -12.865   -13.890
5.94604    -12.392   -14.019
6.03252    -11.919   -14.151
6.12027    -11.446   -14.284
6.20929    -10.973   -14.419
6.29961    -10.500   -14.556
6.39124    -10.027   -14.694
6.48420     -9.554   -14.835
6.57851     -9.080   -14.978
6.67420     -8.607   -15.123
6.77128     -8.134   -15.270
6.86977     -7.660   -15.419
6.96969     -7.187   -15.571
7.07107     -6.714   -15.724
7.17392     -6.240   -15.880
7.27827     -5.767   -16.038
7.38413     -5.293   -16.199
7.49154     -4.819   -16.362
7.60050     -4.346   -16.527
7.71105     -3.872   -16.695
7.82321     -3.398   -16.865
7.93701     -2.925   -17.038
8.05245     -2.451   -17.214
8.16958     -1.977   -17.392
8.28841     -1.503   -17.574
8.40896     -1.029   -17.757
8.53128     -0.555   -17.944
8.65537     -0.081   -18.133
8.78126      0.394   -18.326
8.90899      0.868   -18.521
9.03857      1.342   -18.719
9.17004      1.816   -18.920
9.30342      2.291   -19.125
9.43874      2.765   -19.332
9.57603      3.239   -19.542
9.71532      3.714   -19.755
9.85663      4.189   -19.972
10.0000      4.663   -20.192
10.1455      5.138   -20.415
10.2930      5.613   -20.641
10.4427      6.088   -20.871
10.5946      6.562   -21.104
10.7487      7.037   -21.341
10.9051      7.513   -21.581
11.0637      7.988   -21.825
11.2246      8.463   -22.072
11.3879      8.939   -22.323
11.5535      9.414   -22.579
11.7216      9.890   -22.838
11.8921     10.365   -23.101
12.0650     10.841   -23.368
12.2405     11.317   -23.639
12.4186     11.793   -23.915
12.5992     12.269   -24.194
12.7825     12.745   -24.478
12.9684     13.222   -24.767
13.1570     13.698   -25.060
13.3484     14.175   -25.357
13.5426     14.652   -25.660
13.7395     15.128   -25.966
13.9394     15.605   -26.278
14.1421     16.082   -26.594
14.3478     16.560   -26.915
14.5565     17.037   -27.242
14.7683     17.515   -27.573
14.9831     17.992   -27.909
15.2010     18.470   -28.251
15.4221     18.948   -28.598
15.6464     19.426   -28.951
15.8740     19.905   -29.310
16.1049     20.383   -29.674
16.3392     20.862   -30.044
16.5768     21.341   -30.420
16.8179     21.820   -30.802
17.0626     22.300   -31.190
17.3107     22.779   -31.584
17.5625     23.259   -31.985
17.8180     23.739   -32.392
18.0771     24.219   -32.806
18.3401     24.699   -33.227
18.6068     25.180   -33.654
18.8775     25.661   -34.089
19.1521     26.142   -34.531
19.4306     26.624   -34.980
19.7133     27.104   -35.447
20.0000     27.583   -35.945
20.2909     28.055   -36.473
20.5860     28.517   -37.002
20.8855     28.968   -37.430
21.1893     29.408   -37.719
21.4975     29.843   -37.953
21.8102     30.281   -38.202
22.1274     30.730   -38.493
22.4492     31.195   -38.802
22.7758     31.680   -39.084
23.1071     32.182   -39.412
23.4432     32.698   -39.824
23.7841     33.220   -40.428
24.1301     33.741   -41.367
24.4811     34.253   -42.506
24.8372     34.751   -43.626
25.1984     35.235   -44.624
25.5649     35.709   -45.428
25.9368     36.179   -46.130
26.3141     36.652   -46.857
26.6968     37.130   -47.678
27.0851     37.614   -48.638
27.4791     38.100   -49.705
27.8788     38.585   -50.798
28.2843     39.066   -51.827
28.6957     39.545   -52.797
29.1131     40.023   -53.769
29.5365     40.500   -54.777
29.9661     40.978   -55.873
30.4020     41.455   -56.989
30.8442     41.930   -58.091
31.2929     42.406   -59.215
31.7480     42.882   -60.396
32.2098     43.355   -61.711
32.6783     43.823   -63.156
33.1536     44.281   -64.453
33.6359     44.733   -65.407
34.1251     45.191   -65.944
34.6215     45.676   -66.429
35.1250     46.193   -67.190
35.6359     46.732   -68.384
36.1543     47.271   -69.822
36.6802     47.801   -71.335
37.2137     48.319   -72.781
37.7550     48.830   -74.150
38.3041     49.342   -75.581
38.8613     49.862   -77.296
39.4265     50.380   -79.124
40.0000     50.891   -80.867
40.5818     51.396   -82.388
41.1721     51.901   -83.834
41.7710     52.412   -85.388
42.3785     52.929   -87.208
42.9949     53.446   -89.313
43.6203     53.954   -91.613
44.2548     54.446   -93.965
44.8985     54.921   -96.213
45.5515     55.381   -98.267
46.2141     55.834  -100.159
46.8863     56.287  -101.989
47.5683     56.746  -103.845
48.2602     57.214  -105.799
48.9621     57.688  -107.866
49.6743     58.166  -110.022
50.3968     58.645  -112.250
51.1299     59.124  -114.530
51.8736     59.599  -116.847
52.6281     60.070  -119.214
53.3936     60.536  -121.649
54.1702     60.996  -124.159
54.9581     61.448  -126.732
55.7575     61.893  -129.365
56.5685     62.330  -132.066
57.3914     62.760  -134.803
58.2261     63.181  -137.558
59.0730     63.595  -140.351
59.9323     64.001  -143.205
60.8040     64.396  -146.121
61.6884     64.783  -149.086
62.5857     65.160  -152.098
63.4960     65.529  -155.156
64.4196     65.884  -158.252
65.3566     66.224  -161.386
66.3073     66.550  -164.554
67.2717     66.864  -167.745
68.2502     67.171  -170.946
69.2429     67.472  -174.160
70.2501     67.767  -177.405
71.2719     68.047   179.299
72.3086     68.306   175.973
73.3603     68.545   172.659
74.4274     68.764   169.378
75.5099     68.969   166.137
76.6083     69.163   162.925
77.7226     69.347   159.721
78.8531     69.519   156.524
80.0000     69.678   153.337
81.1636     69.823   150.183
82.3442     69.954   147.091
83.5419     70.073   144.058
84.7570     70.181   141.081
85.9899     70.279   138.168
87.2406     70.369   135.317
88.5096     70.451   132.522
89.7970     70.528   129.783
91.1031     70.600   127.092
92.4282     70.669   124.438
93.7726     70.735   121.825
95.1366     70.794   119.250
96.5204     70.848   116.704
97.9243     70.896   114.188
99.3486     70.936   111.710
100.794     70.969   109.277
102.260     70.996   106.893
103.747     71.018   104.575
105.256     71.039   102.327
106.787     71.061   100.121
108.340     71.084    97.923
109.916     71.104    95.735
111.515     71.116    93.568
113.137     71.122    91.432
114.783     71.122    89.349
116.452     71.120    87.315
118.146     71.118    85.302
119.865     71.113    83.298
121.608     71.101    81.310
123.377     71.080    79.366
125.171     71.051    77.500
126.992     71.022    75.715
128.839     70.994    73.990
130.713     70.971    72.303
132.615     70.950    70.620
134.543     70.927    68.932
136.500     70.897    67.266
138.486     70.861    65.655
140.500     70.824    64.118
142.544     70.790    62.652
144.617     70.762    61.235
146.721     70.741    59.837
148.855     70.723    58.436
151.020     70.705    57.026
153.217     70.684    55.618
155.445     70.661    54.231
157.706     70.638    52.860
160.000     70.613    51.498
162.327     70.585    50.159
164.688     70.554    48.858
167.084     70.524    47.600
169.514     70.498    46.386
171.980     70.477    45.185
174.481     70.457    43.971
177.019     70.435    42.751
179.594     70.410    41.525
182.206     70.380    40.312
184.856     70.347    39.138
187.545     70.315    37.995
190.273     70.283    36.879
193.041     70.251    35.797
195.849     70.223    34.742
198.697     70.200    33.691
201.587     70.179    32.609
204.520     70.152    31.482
207.494     70.112    30.361
210.512     70.060    29.325
213.574     70.005    28.434
216.681     69.962    27.669
219.833     69.942    26.929
223.030     69.938    26.115
226.274     69.941    25.170
229.565     69.935    24.115
232.905     69.914    23.047
236.292     69.881    22.041
239.729     69.846    21.120
243.216     69.814    20.265
246.754     69.787    19.440
250.343     69.763    18.630
253.984     69.743    17.839
257.678     69.729    17.064
261.426     69.727    16.278
265.229     69.734    15.406
269.087     69.738    14.415
273.001     69.728    13.359
276.972     69.702    12.301
281.000     69.660    11.338
285.088     69.620    10.540
289.234     69.597     9.822
293.441     69.594     9.078
297.709     69.605     8.237
302.040     69.615     7.277
306.433     69.619     6.234
310.890     69.611     5.110
315.412     69.580     3.955
320.000     69.530     2.851
324.655     69.467     1.805
329.377     69.394     0.859
334.168     69.329     0.035
339.028     69.278    -0.762
343.959     69.233    -1.601
348.962     69.187    -2.480
354.038     69.127    -3.378
359.188     69.052    -4.217
364.412     68.973    -4.941
369.713     68.899    -5.594
375.090     68.835    -6.204
380.546     68.780    -6.790
386.081     68.734    -7.421
391.697     68.682    -8.078
397.394     68.621    -8.740
403.175     68.544    -9.369
409.039     68.452    -9.815
414.989     68.377   -10.037
421.025     68.336   -10.145
427.149     68.330   -10.242
433.362     68.360   -10.460
439.665     68.400   -10.947
446.060     68.423   -11.632
452.548     68.433   -12.329
459.131     68.443   -13.058
465.809     68.454   -13.894
472.584     68.461   -14.851
479.458     68.447   -15.981
486.432     68.385   -17.200
493.507     68.264   -18.201
500.686     68.119   -18.728
507.968     68.002   -18.828
515.357     67.933   -18.664
522.853     67.933   -18.403
530.458     68.001   -18.329
538.174     68.106   -18.641
546.002     68.223   -19.381
553.943     68.319   -20.545
562.001     68.355   -21.969
570.175     68.312   -23.404
578.469     68.195   -24.506
586.883     68.062   -25.034
595.419     67.967   -25.180
604.080     67.933   -25.265
612.866     67.954   -25.543
621.780     67.972   -26.138
630.824     67.959   -26.838
640.000     67.934   -27.392
649.309     67.920   -27.756
658.753     67.953   -28.073
668.335     68.028   -28.597
678.056     68.094   -29.437
687.919     68.131   -30.408
697.925     68.152   -31.313
708.077     68.182   -32.290
718.376     68.189   -33.670
728.825     68.082   -35.007
739.426     67.943   -35.556
750.181     67.889   -35.628
761.093     67.915   -35.766
772.163     67.969   -36.107
783.394     68.042   -36.550
794.789     68.138   -37.153
806.349     68.244   -38.023
818.078     68.353   -39.188
829.977     68.441   -40.703
842.050     68.476   -42.359
854.298     68.473   -43.785
866.724     68.457   -45.041
879.330     68.424   -46.173
892.120     68.408   -47.041
905.097     68.435   -47.904
918.262     68.477   -48.949
931.618     68.536   -50.105
945.169     68.611   -51.436
958.917     68.667   -52.930
972.864     68.722   -54.604
987.015     68.775   -56.531
1001.37     68.799   -58.528
1015.94     68.824   -60.612
1030.71     68.832   -62.927
1045.71     68.780   -65.263
1060.92     68.687   -67.530
1076.35     68.544   -69.802
1092.00     68.333   -71.898
1107.89     68.081   -73.624
1124.00     67.814   -74.836
1140.35     67.563   -75.464
1156.94     67.363   -75.700
1173.77     67.251   -75.661
1190.84     67.246   -75.670
1208.16     67.323   -76.001
1225.73     67.460   -76.742
1243.56     67.615   -78.092
1261.65     67.727   -79.936
1280.00     67.786   -82.030
1298.62     67.764   -84.215
1317.51     67.699   -86.035
1336.67     67.661   -87.574
1356.11     67.619   -89.226
1375.84     67.570   -90.777
1395.85     67.534   -92.345
1416.15     67.467   -93.991
1436.75     67.386   -95.355
1457.65     67.339   -96.557
1478.85     67.331   -97.756
1500.36     67.362   -98.966
1522.19     67.414  -100.484
1544.33     67.473  -102.054
1566.79     67.534  -103.779
1589.58     67.592  -105.693
1612.70     67.655  -107.802
1636.16     67.692  -110.452
1659.95     67.668  -113.302
1684.10     67.573  -116.241
1708.60     67.376  -118.988
1733.45     67.125  -120.754
1758.66     66.910  -121.762
1784.24     66.764  -122.275
1810.19     66.735  -122.481
1836.52     66.836  -123.008
1863.24     67.002  -123.907
1890.34     67.223  -125.501
1917.83     67.463  -127.775
1945.73     67.670  -130.434
1974.03     67.829  -133.668
2002.74     67.894  -137.138
2031.87     67.865  -140.581
2061.43     67.745  -143.882
2091.41     67.575  -146.825
2121.83     67.379  -149.257
2152.69     67.215  -151.226
2184.01     67.127  -152.929
2215.77     67.102  -154.605
2248.00     67.107  -156.567
2280.70     67.142  -159.055
2313.87     67.153  -161.953
2347.53     67.083  -164.895
2381.68     66.981  -167.363
2416.32     66.884  -169.349
2451.46     66.750  -170.737
2487.12     66.657  -171.532
2523.30     66.641  -172.203
2560.00     66.720  -173.109
2597.24     66.875  -174.504
2635.01     67.040  -176.385
2673.34     67.205  -178.808
2712.23     67.285   178.538
2751.68     67.248   175.979
2791.70     67.195   173.869
2832.31     67.118   172.020
2873.50     67.063   170.303
2915.30     67.066   168.738
2957.70     67.104   166.909
3000.72     67.129   164.614
3044.37     67.098   162.244
3088.65     66.948   159.836
3133.58     66.692   158.474
3179.16     66.637   157.969
3225.40     66.585   156.687
3272.31     66.510   155.935
3319.91     66.495   155.595
3368.20     66.580   155.290
3417.19     66.738   154.544
3466.89     66.871   153.206
3517.32     66.976   151.508
3568.48     67.030   149.579
3620.39     67.033   147.769
3673.05     67.039   146.294
3726.47     67.052   144.742
3780.67     67.068   143.131
3835.67     67.054   141.353
3891.46     66.976   139.546
3948.06     66.864   138.018
4005.49     66.749   136.922
4063.75     66.679   135.888
4122.86     66.629   134.590
4182.82     66.539   133.054
4243.66     66.361   131.552
4305.39     66.088   130.609
4368.01     65.802   130.801
4431.55     65.602   131.672
4496.01     65.511   132.690
4561.40     65.527   133.582
4627.75     65.596   133.853
4695.06     65.627   133.826
4763.35     65.665   133.776
4832.64     65.709   133.508
4902.93     65.729   133.369
4974.24     65.791   133.012
5046.60     65.826   132.370
5120.00     65.850   131.790
5194.47     65.887   130.783
5270.03     65.859   129.393
5346.68     65.730   127.927
5424.45     65.495   126.794
5503.35     65.197   126.423
5583.40     64.914   126.769
5664.61     64.668   127.519
5747.01     64.462   128.600
5830.60     64.284   129.938
5915.41     64.168   131.554
6001.45     64.080   133.117
6088.74     64.048   134.734
6177.30     64.030   136.163
6267.15     64.000   137.256
6358.31     63.948   138.548
6450.80     63.894   140.077
6544.62     63.872   141.657
6639.82     63.893   143.545
6736.40     63.948   145.293
6834.38     64.059   147.005
6933.79     64.249   148.639
7034.64     64.478   149.614
7136.96     64.663   150.139
7240.77     64.852   150.752
7346.09     65.004   151.130
7452.94     65.114   151.301
7561.35     65.229   151.710
7671.33     65.310   151.953
7782.91     65.351   151.999
7896.12     65.335   152.167
8010.97     65.234   152.425
8127.49     65.099   153.035
8245.71     64.966   154.188
8365.65     64.890   155.547
8487.33     64.861   156.876
8610.78     64.840   158.133
8736.03     64.833   159.333
8863.09     64.851   160.318
8992.01     64.836   160.990
9122.80     64.810   161.940
9255.50     64.832   163.052
9390.12     64.900   164.052
9526.70     65.009   164.804
9665.27     65.065   165.260
9805.86     65.085   165.794
9948.49     65.080   166.197
10093.2     64.978   166.730
10240.0     64.894   167.720
10388.9     64.845   168.519
10540.1     64.778   168.933
10693.4     64.641   168.923
10848.9     64.374   169.133
11006.7     64.016   169.643
11166.8     63.525   171.161
11329.2     63.036   174.038
11494.0     62.660   177.841
11661.2     62.438  -177.825
11830.8     62.393  -173.740
12002.9     62.474  -170.066
12177.5     62.598  -167.342
12354.6     62.684  -165.244
12534.3     62.760  -163.545
12716.6     62.746  -162.836
12901.6     62.517  -162.277
13089.2     62.143  -161.009
13279.6     61.655  -158.407
13472.8     61.323  -154.565
13668.8     61.122  -151.023
13867.6     60.930  -147.464
14069.3     60.792  -144.296
14273.9     60.580  -141.178
14481.5     60.322  -137.435
14692.2     60.067  -133.183
14905.9     59.866  -128.261
15122.7     59.729  -123.093
15342.7     59.681  -117.941
15565.8     59.734  -112.726
15792.2     59.852  -107.810
16021.9     60.053  -103.148
16255.0     60.320   -98.668
16491.4     60.618   -94.914
16731.3     60.940   -91.645
16974.7     61.187   -88.925
17221.6     61.389   -86.628
17472.1     61.501   -84.575
17726.2     61.515   -82.437
17984.0     61.434   -80.357
18245.6     61.262   -77.783
18511.0     61.035   -74.661
18780.2     60.821   -70.790
19053.4     60.689   -66.519
19330.5     60.683   -62.175
19611.7     60.807   -58.195
19897.0     61.013   -54.942
20186.4     61.216   -52.560
20480.0     61.353   -50.642
20777.9     61.418   -48.824
21080.1     61.421   -46.937
21386.7     61.393   -45.014
21697.8     61.349   -43.044
22013.4     61.280   -41.346
22333.6     61.175   -40.017
22658.4     60.948   -39.230
22988.0     60.504   -39.154
23322.4     59.665   -38.819
23661.6     58.316   -35.312
