Freq[Hz]     dBSPL  Phase[Deg]
5.00000    -17.865   -12.667
5.07273    -17.509   -12.755
5.14651    -17.121   -12.852
5.22137    -16.687   -12.958
5.29732    -16.235   -13.070
5.37437    -15.761   -13.188
5.45254    -15.288   -13.307
5.53185    -14.815   -13.429
5.61231    -14.342   -13.551
5.69394    -13.868   -13.676
5.77676    -13.395   -13.802
5.86079    -12.922   -13.931
5.94604    -12.448   -14.061
6.03252    -11.975   -14.192
6.12027    -11.502   -14.326
6.20929    -11.028   -14.462
6.29961    -10.555   -14.599
6.39124    -10.081   -14.739
6.48420     -9.608   -14.880
6.57851     -9.134   -15.023
6.67420     -8.661   -15.169
6.77128     -8.187   -15.317
6.86977     -7.714   -15.466
6.96969     -7.240   -15.618
7.07107     -6.766   -15.772
7.17392     -6.292   -15.929
7.27827     -5.819   -16.088
7.38413     -5.345   -16.249
7.49154     -4.871   -16.413
7.60050     -4.397   -16.579
7.71105     -3.923   -16.747
7.82321     -3.449   -16.918
7.93701     -2.974   -17.092
8.05245     -2.500   -17.268
8.16958     -2.026   -17.448
8.28841     -1.552   -17.629
8.40896     -1.078   -17.814
8.53128     -0.603   -18.001
8.65537     -0.129   -18.192
8.78126      0.346   -18.385
8.90899      0.820   -18.581
9.03857      1.295   -18.780
9.17004      1.769   -18.982
9.30342      2.244   -19.187
9.43874      2.719   -19.395
9.57603      3.194   -19.606
9.71532      3.668   -19.821
9.85663      4.143   -20.038
10.0000      4.618   -20.259
10.1455      5.093   -20.483
10.2930      5.568   -20.710
10.4427      6.043   -20.941
10.5946      6.519   -21.175
10.7487      6.994   -21.412
10.9051      7.469   -21.654
11.0637      7.945   -21.898
11.2246      8.421   -22.147
11.3879      8.896   -22.399
11.5535      9.372   -22.655
11.7216      9.848   -22.916
11.8921     10.324   -23.180
12.0650     10.800   -23.448
12.2405     11.276   -23.720
12.4186     11.753   -23.997
12.5992     12.229   -24.278
12.7825     12.706   -24.563
12.9684     13.182   -24.853
13.1570     13.659   -25.147
13.3484     14.136   -25.446
13.5426     14.613   -25.749
13.7395     15.090   -26.057
13.9394     15.568   -26.370
14.1421     16.045   -26.688
14.3478     16.523   -27.010
14.5565     17.000   -27.338
14.7683     17.478   -27.671
14.9831     17.956   -28.008
15.2010     18.434   -28.352
15.4221     18.913   -28.700
15.6464     19.391   -29.054
15.8740     19.870   -29.414
16.1049     20.349   -29.780
16.3392     20.828   -30.151
16.5768     21.307   -30.529
16.8179     21.787   -30.912
17.0626     22.266   -31.302
17.3107     22.746   -31.698
17.5625     23.226   -32.100
17.8180     23.706   -32.509
18.0771     24.187   -32.925
18.3401     24.668   -33.347
18.6068     25.149   -33.777
18.8775     25.630   -34.213
19.1521     26.111   -34.656
19.4306     26.593   -35.107
19.7133     27.074   -35.576
20.0000     27.553   -36.075
20.2909     28.026   -36.604
20.5860     28.490   -37.133
20.8855     28.943   -37.560
21.1893     29.383   -37.849
21.4975     29.818   -38.086
21.8102     30.256   -38.340
22.1274     30.704   -38.639
22.4492     31.169   -38.953
22.7758     31.654   -39.235
23.1071     32.156   -39.560
23.4432     32.673   -39.968
23.7841     33.196   -40.568
24.1301     33.718   -41.509
24.4811     34.231   -42.653
24.8372     34.729   -43.780
25.1984     35.213   -44.785
25.5649     35.687   -45.594
25.9368     36.156   -46.301
26.3141     36.629   -47.031
26.6968     37.108   -47.854
27.0851     37.591   -48.817
27.4791     38.078   -49.888
27.8788     38.563   -50.984
28.2843     39.045   -52.017
28.6957     39.523   -52.991
29.1131     40.001   -53.965
29.5365     40.478   -54.977
29.9661     40.956   -56.077
30.4020     41.433   -57.197
30.8442     41.908   -58.302
31.2929     42.384   -59.429
31.7480     42.860   -60.614
32.2098     43.334   -61.933
32.6783     43.802   -63.386
33.1536     44.259   -64.692
33.6359     44.710   -65.654
34.1251     45.166   -66.194
34.6215     45.650   -66.675
35.1250     46.167   -67.428
35.6359     46.707   -68.617
36.1543     47.247   -70.056
36.6802     47.777   -71.573
37.2137     48.296   -73.025
37.7550     48.806   -74.400
38.3041     49.318   -75.836
38.8613     49.838   -77.555
39.4265     50.357   -79.387
40.0000     50.868   -81.135
40.5818     51.373   -82.659
41.1721     51.877   -84.104
41.7710     52.388   -85.657
42.3785     52.906   -87.476
42.9949     53.423   -89.582
43.6203     53.933   -91.887
44.2548     54.427   -94.248
44.8985     54.902   -96.509
45.5515     55.362   -98.575
46.2141     55.814  -100.479
46.8863     56.266  -102.317
47.5683     56.725  -104.178
48.2602     57.191  -106.135
48.9621     57.665  -108.205
49.6743     58.143  -110.364
50.3968     58.622  -112.595
51.1299     59.101  -114.878
51.8736     59.576  -117.199
52.6281     60.048  -119.570
53.3936     60.513  -122.010
54.1702     60.973  -124.527
54.9581     61.425  -127.107
55.7575     61.870  -129.747
56.5685     62.307  -132.455
57.3914     62.737  -135.199
58.2261     63.158  -137.961
59.0730     63.571  -140.759
59.9323     63.977  -143.617
60.8040     64.372  -146.538
61.6884     64.758  -149.508
62.5857     65.136  -152.525
63.4960     65.504  -155.588
64.4196     65.859  -158.691
65.3566     66.199  -161.832
66.3073     66.525  -165.009
67.2717     66.839  -168.209
68.2502     67.145  -171.416
69.2429     67.446  -174.635
70.2501     67.740  -177.883
71.2719     68.020   178.820
72.3086     68.280   175.490
73.3603     68.519   172.172
74.4274     68.739   168.883
75.5099     68.944   165.632
76.6083     69.138   162.410
77.7226     69.322   159.196
78.8531     69.494   155.990
80.0000     69.652   152.793
81.1636     69.797   149.630
82.3442     69.928   146.531
83.5419     70.046   143.491
84.7570     70.154   140.507
85.9899     70.252   137.587
87.2406     70.342   134.727
88.5096     70.425   131.922
89.7970     70.501   129.173
91.1031     70.573   126.471
92.4282     70.642   123.807
93.7726     70.707   121.183
95.1366     70.766   118.599
96.5204     70.820   116.044
97.9243     70.867   113.518
99.3486     70.907   111.031
100.794     70.940   108.588
102.260     70.967   106.194
103.747     70.989   103.865
105.256     71.008   101.606
106.787     71.030    99.390
108.340     71.053    97.184
109.916     71.072    94.989
111.515     71.084    92.815
113.137     71.090    90.672
114.783     71.090    88.581
116.452     71.089    86.539
118.146     71.087    84.514
119.865     71.083    82.495
121.608     71.072    80.489
123.377     71.051    78.524
125.171     71.022    76.639
126.992     70.991    74.835
128.839     70.963    73.095
130.713     70.939    71.393
132.615     70.917    69.695
134.543     70.893    67.993
136.500     70.862    66.310
138.486     70.825    64.683
140.500     70.787    63.133
142.544     70.752    61.656
144.617     70.724    60.231
146.721     70.702    58.825
148.855     70.684    57.414
151.020     70.666    55.992
153.217     70.645    54.569
155.445     70.621    53.166
157.706     70.598    51.781
160.000     70.572    50.406
162.327     70.543    49.055
164.688     70.513    47.740
167.084     70.483    46.466
169.514     70.458    45.234
171.980     70.437    44.010
174.481     70.416    42.772
177.019     70.394    41.528
179.594     70.368    40.280
182.206     70.336    39.046
184.856     70.302    37.853
187.545     70.269    36.693
190.273     70.237    35.557
193.041     70.205    34.455
195.849     70.177    33.378
198.697     70.154    32.302
201.587     70.132    31.193
204.520     70.106    30.034
207.494     70.066    28.874
210.512     70.012    27.795
213.574     69.953    26.861
216.681     69.905    26.058
219.833     69.879    25.292
223.030     69.871    24.464
226.274     69.870    23.517
229.565     69.862    22.461
232.905     69.840    21.387
236.292     69.809    20.366
239.729     69.775    19.418
243.216     69.743    18.526
246.754     69.714    17.658
250.343     69.687    16.807
253.984     69.663    15.979
257.678     69.644    15.176
261.426     69.637    14.369
265.229     69.642    13.484
269.087     69.643    12.476
273.001     69.632    11.400
276.972     69.605    10.316
281.000     69.561     9.321
285.088     69.518     8.488
289.234     69.492     7.739
293.441     69.485     6.968
297.709     69.492     6.105
302.040     69.499     5.127
306.433     69.502     4.067
310.890     69.493     2.921
315.412     69.462     1.725
320.000     69.411     0.567
324.655     69.344    -0.543
329.377     69.265    -1.552
334.168     69.192    -2.424
339.028     69.134    -3.256
343.959     69.083    -4.126
348.962     69.030    -5.043
354.038     68.963    -5.986
359.188     68.879    -6.864
364.412     68.790    -7.618
369.713     68.707    -8.292
375.090     68.633    -8.914
380.546     68.571    -9.515
386.081     68.517   -10.163
391.697     68.457   -10.840
397.394     68.387   -11.520
403.175     68.301   -12.165
409.039     68.199   -12.631
414.989     68.111   -12.860
421.025     68.057   -12.951
427.149     68.040   -13.012
433.362     68.062   -13.180
439.665     68.100   -13.627
446.060     68.121   -14.296
452.548     68.128   -14.987
459.131     68.136   -15.702
465.809     68.146   -16.525
472.584     68.155   -17.477
479.458     68.145   -18.623
486.432     68.088   -19.902
493.507     67.965   -21.005
500.686     67.810   -21.641
507.968     67.674   -21.819
515.357     67.582   -21.682
522.853     67.560   -21.395
530.458     67.613   -21.254
538.174     67.710   -21.489
546.002     67.825   -22.164
553.943     67.923   -23.300
562.001     67.959   -24.756
570.175     67.908   -26.264
578.469     67.773   -27.432
586.883     67.613   -27.968
595.419     67.491   -28.053
604.080     67.439   -28.022
612.866     67.456   -28.177
621.780     67.475   -28.717
630.824     67.460   -29.418
640.000     67.426   -29.970
649.309     67.397   -30.301
658.753     67.418   -30.520
668.335     67.489   -30.909
678.056     67.559   -31.645
687.919     67.602   -32.554
697.925     67.626   -33.437
708.077     67.652   -34.419
718.376     67.650   -35.787
728.825     67.533   -37.083
739.426     67.384   -37.569
750.181     67.322   -37.550
761.093     67.342   -37.569
772.163     67.395   -37.782
783.394     67.470   -38.085
794.789     67.571   -38.543
806.349     67.690   -39.278
818.078     67.818   -40.325
829.977     67.932   -41.774
842.050     67.990   -43.445
854.298     68.001   -44.915
866.724     67.991   -46.213
879.330     67.958   -47.385
892.120     67.936   -48.237
905.097     67.961   -49.017
918.262     68.011   -49.957
931.618     68.088   -51.014
945.169     68.186   -52.289
958.917     68.266   -53.798
972.864     68.342   -55.528
987.015     68.416   -57.518
1001.37     68.458   -59.578
1015.94     68.503   -61.705
1030.71     68.536   -64.081
1045.71     68.505   -66.526
1060.92     68.431   -68.930
1076.35     68.308   -71.386
1092.00     68.112   -73.706
1107.89     67.870   -75.682
1124.00     67.604   -77.189
1140.35     67.338   -78.120
1156.94     67.107   -78.622
1173.77     66.951   -78.746
1190.84     66.904   -78.758
1208.16     66.954   -78.981
1225.73     67.080   -79.549
1243.56     67.242   -80.732
1261.65     67.374   -82.501
1280.00     67.455   -84.637
1298.62     67.447   -86.983
1317.51     67.377   -88.974
1336.67     67.322   -90.611
1356.11     67.265   -92.343
1375.84     67.197   -93.941
1395.85     67.147   -95.503
1416.15     67.074   -97.151
1436.75     66.981   -98.523
1457.65     66.921   -99.685
1478.85     66.909  -100.817
1500.36     66.940  -102.002
1522.19     66.995  -103.525
1544.33     67.052  -105.110
1566.79     67.107  -106.869
1589.58     67.155  -108.800
1612.70     67.211  -110.893
1636.16     67.253  -113.565
1659.95     67.229  -116.495
1684.10     67.135  -119.547
1708.60     66.929  -122.486
1733.45     66.641  -124.403
1758.66     66.383  -125.395
1784.24     66.202  -125.773
1810.19     66.147  -125.726
1836.52     66.256  -125.966
1863.24     66.440  -126.670
1890.34     66.686  -128.148
1917.83     66.953  -130.399
1945.73     67.171  -133.090
1974.03     67.339  -136.345
2002.74     67.410  -139.832
2031.87     67.388  -143.277
2061.43     67.285  -146.596
2091.41     67.136  -149.551
2121.83     66.966  -152.070
2152.69     66.831  -154.169
2184.01     66.766  -156.048
2215.77     66.755  -157.921
2248.00     66.765  -160.106
2280.70     66.799  -162.762
2313.87     66.807  -165.818
2347.53     66.733  -168.972
2381.68     66.613  -171.641
2416.32     66.495  -173.731
2451.46     66.336  -175.259
2487.12     66.207  -176.149
2523.30     66.153  -176.909
2560.00     66.199  -177.813
2597.24     66.322  -179.199
2635.01     66.458   178.965
2673.34     66.597   176.775
2712.23     66.658   174.370
2751.68     66.604   172.052
2791.70     66.534   170.250
2832.31     66.464   168.561
2873.50     66.422   166.908
2915.30     66.435   165.316
2957.70     66.494   163.399
3000.72     66.544   160.961
3044.37     66.529   158.387
3088.65     66.385   155.753
3133.58     66.138   154.105
3179.16     66.078   153.272
3225.40     65.992   151.723
3272.31     65.870   150.786
3319.91     65.794   150.382
3368.20     65.804   150.158
3417.19     65.908   149.619
3466.89     66.008   148.483
3517.32     66.081   147.060
3568.48     66.123   145.471
3620.39     66.138   143.938
3673.05     66.155   142.744
3726.47     66.202   141.410
3780.67     66.256   139.838
3835.67     66.272   138.038
3891.46     66.226   136.091
3948.06     66.130   134.356
4005.49     66.028   133.073
4063.75     65.978   131.799
4122.86     65.939   130.190
4182.82     65.856   128.254
4243.66     65.662   126.207
4305.39     65.346   124.672
4368.01     64.972   124.394
4431.55     64.656   125.031
4496.01     64.442   126.027
4561.40     64.333   127.260
4627.75     64.320   128.122
4695.06     64.296   128.711
4763.35     64.312   129.325
4832.64     64.366   129.553
4902.93     64.393   129.755
4974.24     64.483   129.749
5046.60     64.558   129.264
5120.00     64.612   128.925
5194.47     64.697   128.123
5270.03     64.726   126.827
5346.68     64.658   125.325
5424.45     64.464   123.854
5503.35     64.174   123.096
5583.40     63.866   123.116
5664.61     63.564   123.650
5747.01     63.281   124.772
5830.60     63.017   126.394
5915.41     62.824   128.487
6001.45     62.696   130.506
6088.74     62.652   132.616
6177.30     62.659   134.358
6267.15     62.699   135.494
6358.31     62.703   136.675
6450.80     62.686   137.852
6544.62     62.680   139.065
6639.82     62.652   140.640
6736.40     62.659   142.272
6834.38     62.737   144.194
6933.79     62.908   146.145
7034.64     63.170   147.460
7136.96     63.404   148.216
7240.77     63.619   148.795
7346.09     63.772   148.976
7452.94     63.858   148.965
7561.35     63.917   149.386
7671.33     63.937   149.929
7782.91     63.957   150.523
7896.12     63.963   151.289
8010.97     63.923   151.979
8127.49     63.880   152.758
8245.71     63.849   153.776
8365.65     63.846   154.728
8487.33     63.852   155.682
8610.78     63.856   156.737
8736.03     63.867   157.831
8863.09     63.925   158.789
8992.01     63.982   159.296
9122.80     64.013   159.766
9255.50     64.052   160.217
9390.12     64.086   160.591
9526.70     64.110   160.928
9665.27     64.060   161.170
9805.86     63.962   161.774
9948.49     63.876   162.443
10093.2     63.712   163.076
10240.0     63.563   164.228
10388.9     63.456   165.249
10540.1     63.335   165.965
10693.4     63.159   166.423
10848.9     62.890   167.243
11006.7     62.586   168.343
11166.8     62.203   170.149
11329.2     61.838   172.896
11494.0     61.561   176.160
11661.2     61.385   179.706
11830.8     61.322  -176.988
12002.9     61.331  -173.901
12177.5     61.378  -171.397
12354.6     61.390  -169.210
12534.3     61.414  -167.167
12716.6     61.408  -166.066
12901.6     61.209  -165.372
13089.2     60.879  -164.168
13279.6     60.430  -162.045
13472.8     60.075  -158.632
13668.8     59.828  -155.308
13867.6     59.579  -151.839
14069.3     59.405  -148.501
14273.9     59.196  -145.563
14481.5     58.913  -142.308
14692.2     58.571  -138.731
14905.9     58.193  -134.264
15122.7     57.796  -128.780
15342.7     57.513  -122.535
15565.8     57.422  -115.564
15792.2     57.563  -108.640
16021.9     57.916  -102.502
16255.0     58.406   -97.084
16491.4     58.948   -93.067
16731.3     59.478   -90.154
16974.7     59.904   -88.375
17221.6     60.210   -87.307
17472.1     60.345   -86.725
17726.2     60.313   -86.045
17984.0     60.118   -85.255
18245.6     59.770   -83.807
18511.0     59.318   -81.508
18780.2     58.834   -77.851
19053.4     58.396   -73.006
19330.5     58.127   -67.240
19611.7     58.118   -61.228
19897.0     58.330   -55.971
20186.4     58.664   -52.191
20480.0     58.950   -49.751
20777.9     59.086   -48.173
21080.1     59.059   -46.649
21386.7     58.928   -44.615
21697.8     58.767   -42.018
22013.4     58.618   -39.294
22333.6     58.498   -36.572
22658.4     58.311   -34.296
22988.0     57.945   -32.757
23322.4     57.238   -31.017
23661.6     56.093   -26.309
