Freq[Hz]     dBSPL  Phase[Deg]
5.00000    -18.146   -11.120
5.07273    -17.789   -11.213
5.14651    -17.400   -11.315
5.22137    -16.965   -11.431
5.29732    -16.511   -11.552
5.37437    -16.037   -11.680
5.45254    -15.562   -11.810
5.53185    -15.087   -11.942
5.61231    -14.613   -12.076
5.69394    -14.138   -12.212
5.77676    -13.663   -12.350
5.86079    -13.189   -12.490
5.94604    -12.714   -12.631
6.03252    -12.239   -12.775
6.12027    -11.765   -12.921
6.20929    -11.290   -13.069
6.29961    -10.815   -13.218
6.39124    -10.340   -13.370
6.48420     -9.865   -13.525
6.57851     -9.391   -13.681
6.67420     -8.916   -13.839
6.77128     -8.441   -14.000
6.86977     -7.966   -14.164
6.96969     -7.491   -14.329
7.07107     -7.015   -14.497
7.17392     -6.540   -14.668
7.27827     -6.065   -14.841
7.38413     -5.590   -15.016
7.49154     -5.115   -15.194
7.60050     -4.639   -15.375
7.71105     -4.164   -15.559
7.82321     -3.688   -15.745
7.93701     -3.213   -15.934
8.05245     -2.737   -16.126
8.16958     -2.262   -16.321
8.28841     -1.786   -16.519
8.40896     -1.310   -16.720
8.53128     -0.835   -16.924
8.65537     -0.359   -17.131
8.78126      0.117   -17.342
8.90899      0.593   -17.555
9.03857      1.069   -17.772
9.17004      1.545   -17.992
9.30342      2.021   -18.215
9.43874      2.497   -18.441
9.57603      2.973   -18.671
9.71532      3.449   -18.905
9.85663      3.925   -19.141
10.0000      4.402   -19.382
10.1455      4.878   -19.625
10.2930      5.355   -19.873
10.4427      5.831   -20.124
10.5946      6.308   -20.379
10.7487      6.784   -20.637
10.9051      7.261   -20.900
11.0637      7.738   -21.166
11.2246      8.215   -21.437
11.3879      8.692   -21.711
11.5535      9.169   -21.990
11.7216      9.647   -22.273
11.8921     10.124   -22.560
12.0650     10.601   -22.852
12.2405     11.079   -23.148
12.4186     11.557   -23.449
12.5992     12.035   -23.755
12.7825     12.513   -24.065
12.9684     12.991   -24.380
13.1570     13.469   -24.700
13.3484     13.947   -25.025
13.5426     14.425   -25.354
13.7395     14.904   -25.689
13.9394     15.383   -26.029
14.1421     15.861   -26.375
14.3478     16.340   -26.725
14.5565     16.819   -27.081
14.7683     17.299   -27.443
14.9831     17.778   -27.810
15.2010     18.257   -28.183
15.4221     18.737   -28.561
15.6464     19.217   -28.946
15.8740     19.697   -29.337
16.1049     20.177   -29.734
16.3392     20.658   -30.137
16.5768     21.138   -30.547
16.8179     21.619   -30.963
17.0626     22.100   -31.386
17.3107     22.582   -31.816
17.5625     23.063   -32.253
17.8180     23.545   -32.697
18.0771     24.026   -33.148
18.3401     24.509   -33.606
18.6068     24.991   -34.071
18.8775     25.473   -34.544
19.1521     25.956   -35.025
19.4306     26.439   -35.514
19.7133     26.922   -36.025
20.0000     27.403   -36.574
20.2909     27.879   -37.160
20.5860     28.346   -37.737
20.8855     28.799   -38.166
21.1893     29.238   -38.395
21.4975     29.672   -38.551
21.8102     30.114   -38.754
22.1274     30.570   -39.067
22.4492     31.048   -39.474
22.7758     31.545   -39.903
23.1071     32.055   -40.375
23.4432     32.571   -40.877
23.7841     33.087   -41.521
24.1301     33.600   -42.480
24.4811     34.106   -43.633
24.8372     34.599   -44.773
25.1984     35.081   -45.800
25.5649     35.555   -46.643
25.9368     36.024   -47.391
26.3141     36.496   -48.165
26.6968     36.971   -49.025
27.0851     37.449   -50.010
27.4791     37.930   -51.090
27.8788     38.411   -52.186
28.2843     38.891   -53.216
28.6957     39.370   -54.195
29.1131     39.849   -55.185
29.5365     40.328   -56.222
29.9661     40.806   -57.356
30.4020     41.283   -58.511
30.8442     41.758   -59.651
31.2929     42.233   -60.810
31.7480     42.707   -62.021
32.2098     43.178   -63.361
32.6783     43.643   -64.833
33.1536     44.098   -66.157
33.6359     44.548   -67.139
34.1251     45.003   -67.709
34.6215     45.486   -68.219
35.1250     46.003   -68.986
35.6359     46.541   -70.164
36.1543     47.083   -71.585
36.6802     47.620   -73.104
37.2137     48.144   -74.596
37.7550     48.660   -76.045
38.3041     49.174   -77.575
38.8613     49.690   -79.374
39.4265     50.203   -81.253
40.0000     50.710   -83.023
40.5818     51.212   -84.565
41.1721     51.716   -86.036
41.7710     52.225   -87.624
42.3785     52.739   -89.476
42.9949     53.253   -91.602
43.6203     53.759   -93.913
44.2548     54.252   -96.271
44.8985     54.730   -98.531
45.5515     55.193  -100.607
46.2141     55.650  -102.537
46.8863     56.106  -104.417
47.5683     56.567  -106.327
48.2602     57.035  -108.337
48.9621     57.508  -110.457
49.6743     57.985  -112.659
50.3968     58.463  -114.926
51.1299     58.941  -117.241
51.8736     59.417  -119.593
52.6281     59.889  -121.997
53.3936     60.357  -124.477
54.1702     60.819  -127.043
54.9581     61.272  -129.679
55.7575     61.715  -132.373
56.5685     62.150  -135.128
57.3914     62.578  -137.913
58.2261     62.997  -140.710
59.0730     63.410  -143.540
59.9323     63.816  -146.432
60.8040     64.213  -149.389
61.6884     64.602  -152.398
62.5857     64.982  -155.460
63.4960     65.353  -158.580
64.4196     65.710  -161.748
65.3566     66.049  -164.957
66.3073     66.373  -168.200
67.2717     66.684  -171.460
68.2502     66.986  -174.716
69.2429     67.284  -177.976
70.2501     67.576   178.741
71.2719     67.855   175.411
72.3086     68.115   172.048
73.3603     68.355   168.694
74.4274     68.576   165.364
75.5099     68.783   162.067
76.6083     68.977   158.793
77.7226     69.161   155.527
78.8531     69.332   152.275
80.0000     69.489   149.041
81.1636     69.632   145.851
82.3442     69.766   142.732
83.5419     69.890   139.665
84.7570     70.005   136.637
85.9899     70.111   133.652
87.2406     70.208   130.707
88.5096     70.296   127.803
89.7970     70.375   124.949
91.1031     70.448   122.142
92.4282     70.517   119.375
93.7726     70.581   116.652
95.1366     70.638   113.973
96.5204     70.689   111.329
97.9243     70.734   108.720
99.3486     70.772   106.154
100.794     70.804   103.630
102.260     70.830   101.153
103.747     70.852    98.732
105.256     70.870    96.373
106.787     70.889    94.056
108.340     70.907    91.753
109.916     70.920    89.467
111.515     70.927    87.211
113.137     70.926    84.998
114.783     70.922    82.849
116.452     70.920    80.750
118.146     70.920    78.663
119.865     70.919    76.567
121.608     70.910    74.463
123.377     70.890    72.383
125.171     70.860    70.372
126.992     70.823    68.446
128.839     70.787    66.596
130.713     70.754    64.808
132.615     70.724    63.054
134.543     70.695    61.320
136.500     70.665    59.617
138.486     70.636    57.953
140.500     70.608    56.323
142.544     70.583    54.724
144.617     70.562    53.147
146.721     70.544    51.571
148.855     70.526    49.984
151.020     70.506    48.383
153.217     70.480    46.779
155.445     70.448    45.193
157.706     70.410    43.641
160.000     70.367    42.137
162.327     70.321    40.704
164.688     70.278    39.348
167.084     70.243    38.043
169.514     70.218    36.759
171.980     70.201    35.458
174.481     70.187    34.107
177.019     70.168    32.716
179.594     70.140    31.313
182.206     70.104    29.942
184.856     70.064    28.640
187.545     70.029    27.399
190.273     70.000    26.184
193.041     69.977    24.978
195.849     69.959    23.764
198.697     69.945    22.515
201.587     69.930    21.211
204.520     69.907    19.852
207.494     69.872    18.472
210.512     69.823    17.130
213.574     69.761    15.884
216.681     69.696    14.758
219.833     69.637    13.733
223.030     69.590    12.777
226.274     69.559    11.835
229.565     69.540    10.858
232.905     69.529     9.855
236.292     69.528     8.819
239.729     69.531     7.697
243.216     69.529     6.477
246.754     69.512     5.207
250.343     69.479     3.953
253.984     69.435     2.779
257.678     69.390     1.737
261.426     69.364     0.776
265.229     69.362    -0.264
269.087     69.363    -1.489
273.001     69.349    -2.841
276.972     69.312    -4.210
281.000     69.255    -5.451
285.088     69.204    -6.476
289.234     69.181    -7.414
293.441     69.189    -8.460
297.709     69.206    -9.722
302.040     69.203   -11.173
306.433     69.176   -12.659
310.890     69.130   -14.097
315.412     69.077   -15.487
320.000     69.025   -16.866
324.655     68.969   -18.320
329.377     68.897   -19.824
334.168     68.813   -21.286
339.028     68.718   -22.718
343.959     68.610   -24.120
348.962     68.488   -25.456
354.038     68.347   -26.692
359.188     68.194   -27.737
364.412     68.048   -28.568
369.713     67.928   -29.271
375.090     67.840   -29.973
380.546     67.773   -30.800
386.081     67.712   -31.781
391.697     67.638   -32.877
397.394     67.546   -34.076
403.175     67.426   -35.322
409.039     67.263   -36.477
414.989     67.069   -37.374
421.025     66.865   -37.855
427.149     66.690   -37.882
433.362     66.589   -37.646
439.665     66.573   -37.501
446.060     66.614   -37.727
452.548     66.669   -38.373
459.131     66.708   -39.348
465.809     66.718   -40.541
472.584     66.698   -41.807
479.458     66.662   -43.037
486.432     66.623   -44.316
493.507     66.564   -45.740
500.686     66.472   -47.242
507.968     66.333   -48.720
515.357     66.130   -50.005
522.853     65.884   -50.753
530.458     65.659   -50.842
538.174     65.502   -50.475
546.002     65.451   -49.882
553.943     65.514   -49.638
562.001     65.607   -50.259
570.175     65.634   -51.580
578.469     65.563   -53.194
586.883     65.403   -54.654
595.419     65.197   -55.635
604.080     65.017   -56.092
612.866     64.908   -56.274
621.780     64.853   -56.613
630.824     64.816   -57.193
640.000     64.754   -57.803
649.309     64.664   -58.212
658.753     64.597   -58.297
668.335     64.586   -58.183
678.056     64.654   -58.160
687.919     64.785   -58.633
697.925     64.924   -59.796
708.077     65.033   -61.699
718.376     65.014   -64.432
728.825     64.761   -67.008
739.426     64.402   -68.169
750.181     64.121   -68.212
761.093     63.972   -67.894
772.163     63.897   -67.564
783.394     63.890   -67.375
794.789     63.938   -67.511
806.349     63.991   -67.822
818.078     64.076   -68.228
829.977     64.203   -69.021
842.050     64.306   -70.216
854.298     64.389   -71.517
866.724     64.502   -73.022
879.330     64.633   -75.033
892.120     64.712   -77.457
905.097     64.716   -80.123
918.262     64.626   -82.876
931.618     64.426   -85.416
945.169     64.162   -87.478
958.917     63.911   -88.978
972.864     63.746   -90.331
987.015     63.637   -92.175
1001.37     63.479   -94.337
1015.94     63.251   -96.559
1030.71     62.930   -98.770
1045.71     62.476  -100.646
1060.92     61.970  -101.590
1076.35     61.545  -101.271
1092.00     61.299  -100.211
1107.89     61.218   -99.107
1124.00     61.264   -98.157
1140.35     61.341   -98.437
1156.94     61.281   -99.985
1173.77     61.055  -101.592
1190.84     60.738  -102.686
1208.16     60.376  -102.644
1225.73     60.102  -101.040
1243.56     60.022   -99.181
1261.65     60.087   -97.950
1280.00     60.215   -97.519
1298.62     60.317   -98.256
1317.51     60.339   -98.973
1336.67     60.365   -99.227
1356.11     60.399   -99.449
1375.84     60.492   -99.285
1395.85     60.683   -99.512
1416.15     60.906  -100.828
1436.75     61.048  -102.685
1457.65     61.073  -104.670
1478.85     61.047  -106.031
1500.36     61.023  -106.912
1522.19     61.037  -107.678
1544.33     61.143  -108.635
1566.79     61.244  -110.062
1589.58     61.274  -111.732
1612.70     61.301  -112.623
1636.16     61.411  -112.789
1659.95     61.671  -112.954
1684.10     62.090  -113.657
1708.60     62.567  -115.442
1733.45     63.035  -118.614
1758.66     63.391  -122.898
1784.24     63.543  -127.878
1810.19     63.544  -132.621
1836.52     63.444  -136.738
1863.24     63.273  -140.589
1890.34     63.090  -143.826
1917.83     62.921  -146.150
1945.73     62.800  -148.121
1974.03     62.744  -149.751
2002.74     62.789  -151.607
2031.87     62.873  -154.247
2061.43     63.007  -157.312
2091.41     63.126  -161.010
2121.83     63.157  -165.004
2152.69     63.180  -168.844
2184.01     63.128  -172.704
2215.77     62.968  -176.267
2248.00     62.851  -179.089
2280.70     62.817   178.401
2313.87     62.879   175.169
2347.53     63.020   171.438
2381.68     63.212   166.618
2416.32     63.240   160.521
2451.46     63.129   154.650
2487.12     62.941   149.139
2523.30     62.616   144.253
2560.00     62.348   140.118
2597.24     62.258   135.591
2635.01     62.237   130.041
2673.34     62.233   122.487
2712.23     62.076   113.692
2751.68     61.718   104.474
2791.70     61.240    95.915
2832.31     60.588    88.738
2873.50     59.885    82.798
2915.30     59.247    77.839
2957.70     58.503    72.967
3000.72     57.664    68.285
3044.37     56.866    64.376
3088.65     55.963    60.771
3133.58     55.134    58.406
3179.16     54.602    55.433
3225.40     53.976    51.110
3272.31     53.365    46.645
3319.91     52.886    41.498
3368.20     52.447    35.724
3417.19     52.173    29.530
3466.89     51.919    21.934
3517.32     51.531    14.692
3568.48     51.233     8.231
3620.39     51.172    -0.205
3673.05     51.210    -9.933
3726.47     51.417   -21.443
3780.67     51.715   -35.343
3835.67     51.933   -50.304
3891.46     52.071   -66.808
3948.06     52.035   -83.829
4005.49     52.170  -100.230
4063.75     52.344  -118.319
4122.86     52.424  -136.488
4182.82     52.725  -152.420
4243.66     53.293  -168.134
4305.39     53.874   176.203
4368.01     54.473   161.304
4431.55     54.812   147.076
4496.01     55.018   132.810
4561.40     54.861   118.723
4627.75     54.361   106.607
4695.06     53.806    96.715
4763.35     53.426    87.660
4832.64     52.979    79.670
4902.93     52.720    72.871
4974.24     52.650    65.140
5046.60     52.377    57.506
5120.00     52.137    50.690
5194.47     52.275    43.189
5270.03     52.279    35.839
5346.68     52.575    27.174
5424.45     52.828    16.702
5503.35     52.744     5.947
5583.40     52.676    -4.889
5664.61     52.429   -15.783
5747.01     52.094   -25.057
5830.60     52.120   -33.636
5915.41     52.268   -43.551
6001.45     52.644   -54.033
6088.74     53.185   -66.228
6177.30     53.692   -80.271
6267.15     54.226   -94.478
6358.31     54.717  -110.147
6450.80     55.120  -126.650
6544.62     55.401  -143.970
6639.82     55.477  -162.169
6736.40     55.396  -179.987
6834.38     55.091   162.644
6933.79     54.590   146.534
7034.64     54.149   132.690
7136.96     53.811   119.046
7240.77     53.685   105.944
7346.09     53.849    92.679
7452.94     54.145    77.621
7561.35     54.448    61.306
7671.33     54.612    43.799
7782.91     54.669    25.409
7896.12     54.603     6.739
8010.97     54.341   -11.721
8127.49     54.047   -29.527
8245.71     53.734   -46.910
8365.65     53.420   -64.046
8487.33     53.309   -80.962
8610.78     53.352   -98.513
8736.03     53.462  -116.527
8863.09     53.615  -135.062
8992.01     53.740  -154.225
9122.80     53.673  -174.489
9255.50     53.567   164.300
9390.12     53.386   141.420
9526.70     53.175   117.018
9665.27     52.938    92.153
9805.86     52.639    66.942
9948.49     52.199    42.386
10093.2     51.648    20.155
10240.0     51.010    -1.529
10388.9     50.233   -21.493
10540.1     49.555   -39.916
10693.4     49.216   -59.605
10848.9     48.778   -80.044
11006.7     48.364  -100.355
11166.8     48.070  -120.662
11329.2     47.557  -141.163
11494.0     46.996  -159.928
11661.2     46.751  -177.638
11830.8     46.818   163.005
12002.9     47.060   142.109
12177.5     47.533   119.852
12354.6     48.058    94.693
12534.3     48.445    67.136
12716.6     48.615    38.037
12901.6     48.703     6.985
13089.2     48.249   -26.338
13279.6     47.381   -56.505
13472.8     46.549   -85.913
13668.8     45.250  -114.698
13867.6     43.813  -140.303
14069.3     42.697  -167.462
14273.9     41.081   159.800
14481.5     39.891   120.662
14692.2     38.865    65.026
14905.9     37.834    -7.294
15122.7     37.711   -86.027
15342.7     38.581  -165.600
15565.8     39.990   121.734
15792.2     41.600    63.880
16021.9     42.912    18.287
16255.0     43.988   -21.227
16491.4     44.629   -59.824
16731.3     44.781   -98.428
16974.7     44.559  -137.061
17221.6     44.074  -173.221
17472.1     43.343   155.064
17726.2     43.052   128.435
17984.0     43.404   103.903
18245.6     44.554    78.368
18511.0     46.323    49.445
18780.2     48.195    13.721
19053.4     49.899   -28.572
19330.5     51.286   -74.652
19611.7     52.308  -124.400
19897.0     52.934  -175.102
20186.4     53.180   132.780
20480.0     53.140    80.571
20777.9     52.809    28.639
21080.1     52.234   -23.494
21386.7     51.429   -75.624
21697.8     50.345  -127.848
22013.4     48.994  -179.977
22333.6     47.359   128.487
22658.4     45.413    77.389
22988.0     43.249    26.613
23322.4     40.761   -23.439
23661.6     38.030   -63.228
