Freq[Hz]     dBSPL  Phase[Deg]
5.00000    -17.571   -12.274
5.07273    -17.215   -12.363
5.14651    -16.828   -12.460
5.22137    -16.396   -12.567
5.29732    -15.945   -12.679
5.37437    -15.473   -12.797
5.45254    -15.001   -12.917
5.53185    -14.529   -13.039
5.61231    -14.058   -13.163
5.69394    -13.586   -13.288
5.77676    -13.114   -13.415
5.86079    -12.642   -13.543
5.94604    -12.171   -13.674
6.03252    -11.699   -13.806
6.12027    -11.227   -13.940
6.20929    -10.755   -14.076
6.29961    -10.283   -14.213
6.39124     -9.811   -14.353
6.48420     -9.339   -14.495
6.57851     -8.867   -14.638
6.67420     -8.395   -14.784
6.77128     -7.923   -14.932
6.86977     -7.451   -15.082
6.96969     -6.979   -15.234
7.07107     -6.507   -15.389
7.17392     -6.034   -15.545
7.27827     -5.562   -15.704
7.38413     -5.090   -15.866
7.49154     -4.617   -16.029
7.60050     -4.145   -16.196
7.71105     -3.672   -16.364
7.82321     -3.200   -16.536
7.93701     -2.727   -16.710
8.05245     -2.254   -16.887
8.16958     -1.781   -17.066
8.28841     -1.309   -17.248
8.40896     -0.836   -17.433
8.53128     -0.363   -17.621
8.65537      0.110   -17.812
8.78126      0.583   -18.005
8.90899      1.056   -18.202
9.03857      1.529   -18.401
9.17004      2.002   -18.604
9.30342      2.475   -18.809
9.43874      2.949   -19.018
9.57603      3.422   -19.229
9.71532      3.895   -19.444
9.85663      4.369   -19.662
10.0000      4.842   -19.883
10.1455      5.315   -20.108
10.2930      5.789   -20.336
10.4427      6.263   -20.567
10.5946      6.737   -20.801
10.7487      7.210   -21.039
10.9051      7.684   -21.281
11.0637      8.158   -21.526
11.2246      8.632   -21.775
11.3879      9.107   -22.028
11.5535      9.581   -22.285
11.7216     10.055   -22.545
11.8921     10.530   -22.810
12.0650     11.005   -23.079
12.2405     11.479   -23.352
12.4186     11.954   -23.629
12.5992     12.429   -23.910
12.7825     12.904   -24.196
12.9684     13.379   -24.487
13.1570     13.855   -24.781
13.3484     14.330   -25.081
13.5426     14.806   -25.385
13.7395     15.281   -25.693
13.9394     15.757   -26.007
14.1421     16.233   -26.325
14.3478     16.709   -26.648
14.5565     17.185   -26.977
14.7683     17.661   -27.310
14.9831     18.138   -27.648
15.2010     18.615   -27.992
15.4221     19.092   -28.341
15.6464     19.569   -28.696
15.8740     20.046   -29.057
16.1049     20.523   -29.423
16.3392     21.001   -29.795
16.5768     21.479   -30.173
16.8179     21.957   -30.558
17.0626     22.435   -30.948
17.3107     22.913   -31.345
17.5625     23.392   -31.748
17.8180     23.870   -32.158
18.0771     24.349   -32.574
18.3401     24.829   -32.998
18.6068     25.308   -33.428
18.8775     25.788   -33.865
19.1521     26.268   -34.309
19.4306     26.748   -34.761
19.7133     27.226   -35.242
20.0000     27.700   -35.780
20.2909     28.162   -36.384
20.5860     28.609   -37.005
20.8855     29.040   -37.451
21.1893     29.459   -37.629
21.4975     29.877   -37.657
21.8102     30.310   -37.657
22.1274     30.766   -37.747
22.4492     31.249   -37.999
22.7758     31.755   -38.385
23.1071     32.275   -38.909
23.4432     32.798   -39.527
23.7841     33.316   -40.288
24.1301     33.820   -41.308
24.4811     34.312   -42.458
24.8372     34.793   -43.535
25.1984     35.267   -44.465
25.5649     35.740   -45.210
25.9368     36.214   -45.879
26.3141     36.691   -46.604
26.6968     37.169   -47.443
27.0851     37.646   -48.425
27.4791     38.123   -49.499
27.8788     38.598   -50.572
28.2843     39.074   -51.564
28.6957     39.551   -52.487
29.1131     40.030   -53.414
29.5365     40.512   -54.395
29.9661     40.995   -55.488
30.4020     41.477   -56.632
30.8442     41.953   -57.789
31.2929     42.421   -58.974
31.7480     42.881   -60.173
32.2098     43.335   -61.423
32.6783     43.792   -62.715
33.1536     44.258   -63.838
33.6359     44.738   -64.696
34.1251     45.232   -65.296
34.6215     45.736   -65.963
35.1250     46.248   -66.907
35.6359     46.765   -68.167
36.1543     47.289   -69.551
36.6802     47.818   -70.973
37.2137     48.346   -72.385
37.7550     48.869   -73.815
38.3041     49.382   -75.372
38.8613     49.887   -77.175
39.4265     50.388   -78.995
40.0000     50.891   -80.669
40.5818     51.399   -82.144
41.1721     51.910   -83.608
41.7710     52.420   -85.227
42.3785     52.926   -87.108
42.9949     53.425   -89.221
43.6203     53.916   -91.459
44.2548     54.399   -93.696
44.8985     54.874   -95.817
45.5515     55.343   -97.769
46.2141     55.809   -99.606
46.8863     56.276  -101.428
47.5683     56.746  -103.309
48.2602     57.218  -105.299
48.9621     57.695  -107.402
49.6743     58.173  -109.588
50.3968     58.651  -111.841
51.1299     59.128  -114.143
51.8736     59.602  -116.479
52.6281     60.070  -118.856
53.3936     60.532  -121.286
54.1702     60.989  -123.781
54.9581     61.440  -126.333
55.7575     61.884  -128.944
56.5685     62.323  -131.624
57.3914     62.756  -134.350
58.2261     63.182  -137.105
59.0730     63.599  -139.905
59.9323     64.007  -142.772
60.8040     64.404  -145.702
61.6884     64.791  -148.680
62.5857     65.169  -151.702
63.4960     65.536  -154.768
64.4196     65.890  -157.870
65.3566     66.229  -161.001
66.3073     66.553  -164.164
67.2717     66.866  -167.348
68.2502     67.171  -170.536
69.2429     67.471  -173.742
70.2501     67.763  -176.986
71.2719     68.040   179.719
72.3086     68.297   176.401
73.3603     68.534   173.108
74.4274     68.754   169.855
75.5099     68.960   166.648
76.6083     69.155   163.471
77.7226     69.340   160.302
78.8531     69.513   157.146
80.0000     69.673   154.009
81.1636     69.822   150.918
82.3442     69.962   147.890
83.5419     70.094   144.897
84.7570     70.217   141.921
85.9899     70.329   138.969
87.2406     70.429   136.051
88.5096     70.516   133.180
89.7970     70.595   130.375
91.1031     70.667   127.630
92.4282     70.735   124.931
93.7726     70.799   122.276
95.1366     70.855   119.665
96.5204     70.905   117.092
97.9243     70.948   114.562
99.3486     70.985   112.083
100.794     71.017   109.653
102.260     71.044   107.267
103.747     71.067   104.932
105.256     71.088   102.645
106.787     71.106   100.387
108.340     71.120    98.145
109.916     71.129    95.932
111.515     71.130    93.761
113.137     71.123    91.650
114.783     71.114    89.619
116.452     71.107    87.646
118.146     71.102    85.690
119.865     71.097    83.739
121.608     71.085    81.797
123.377     71.066    79.884
125.171     71.038    78.045
126.992     71.008    76.286
128.839     70.979    74.592
130.713     70.954    72.945
132.615     70.933    71.317
134.543     70.912    69.698
136.500     70.890    68.101
138.486     70.868    66.525
140.500     70.845    64.968
142.544     70.820    63.443
144.617     70.796    61.956
146.721     70.774    60.495
148.855     70.754    59.045
151.020     70.735    57.592
153.217     70.713    56.128
155.445     70.686    54.660
157.706     70.650    53.210
160.000     70.606    51.813
162.327     70.558    50.500
164.688     70.513    49.267
167.084     70.475    48.077
169.514     70.444    46.904
171.980     70.418    45.727
174.481     70.392    44.534
177.019     70.362    43.348
179.594     70.329    42.197
182.206     70.296    41.093
184.856     70.267    40.025
187.545     70.245    38.962
190.273     70.224    37.882
193.041     70.203    36.789
195.849     70.178    35.696
198.697     70.150    34.615
201.587     70.118    33.550
204.520     70.083    32.502
207.494     70.043    31.493
210.512     70.001    30.545
213.574     69.961    29.679
216.681     69.926    28.893
219.833     69.903    28.166
223.030     69.897    27.438
226.274     69.904    26.613
229.565     69.911    25.684
232.905     69.915    24.700
236.292     69.917    23.674
239.729     69.911    22.613
243.216     69.896    21.539
246.754     69.870    20.479
250.343     69.833    19.448
253.984     69.784    18.502
257.678     69.734    17.729
261.426     69.703    17.062
265.229     69.695    16.360
269.087     69.700    15.528
273.001     69.701    14.525
276.972     69.679    13.441
281.000     69.637    12.441
285.088     69.596    11.579
289.234     69.566    10.788
293.441     69.555     9.936
297.709     69.546     8.934
302.040     69.514     7.829
306.433     69.454     6.784
310.890     69.380     5.934
315.412     69.315     5.296
320.000     69.279     4.748
324.655     69.273     4.111
329.377     69.279     3.271
334.168     69.279     2.215
339.028     69.247     1.016
343.959     69.174    -0.144
348.962     69.076    -1.079
354.038     68.979    -1.790
359.188     68.892    -2.355
364.412     68.828    -2.813
369.713     68.797    -3.315
375.090     68.777    -4.001
380.546     68.743    -4.793
386.081     68.700    -5.593
391.697     68.650    -6.415
397.394     68.584    -7.303
403.175     68.492    -8.188
409.039     68.371    -8.929
414.989     68.235    -9.427
421.025     68.106    -9.589
427.149     68.019    -9.464
433.362     67.993    -9.307
439.665     68.016    -9.385
446.060     68.056    -9.869
452.548     68.067   -10.707
459.131     68.027   -11.643
465.809     67.940   -12.422
472.584     67.831   -12.829
479.458     67.753   -12.820
486.432     67.742   -12.681
493.507     67.781   -12.712
500.686     67.846   -13.032
507.968     67.910   -13.732
515.357     67.923   -14.721
522.853     67.878   -15.671
530.458     67.808   -16.399
538.174     67.733   -16.882
546.002     67.685   -17.167
553.943     67.667   -17.525
562.001     67.635   -17.975
570.175     67.596   -18.321
578.469     67.559   -18.622
586.883     67.521   -18.787
595.419     67.517   -18.774
604.080     67.569   -18.863
612.866     67.656   -19.225
621.780     67.742   -19.988
630.824     67.791   -21.108
640.000     67.789   -22.264
649.309     67.754   -23.330
658.753     67.695   -24.384
668.335     67.605   -25.270
678.056     67.509   -25.802
687.919     67.428   -26.057
697.925     67.383   -26.005
708.077     67.431   -25.855
718.376     67.527   -26.370
728.825     67.540   -27.392
739.426     67.503   -28.123
750.181     67.477   -28.660
761.093     67.462   -29.226
772.163     67.438   -29.679
783.394     67.414   -29.849
794.789     67.433   -29.886
806.349     67.503   -29.984
818.078     67.618   -30.328
829.977     67.750   -31.098
842.050     67.856   -32.122
854.298     67.941   -33.163
866.724     68.008   -34.337
879.330     68.045   -35.607
892.120     68.068   -36.707
905.097     68.110   -37.760
918.262     68.164   -38.942
931.618     68.221   -40.163
945.169     68.281   -41.424
958.917     68.344   -42.765
972.864     68.429   -44.301
987.015     68.530   -46.161
1001.37     68.621   -48.348
1015.94     68.690   -50.942
1030.71     68.680   -53.856
1045.71     68.554   -56.686
1060.92     68.349   -59.229
1076.35     68.086   -61.461
1092.00     67.768   -63.297
1107.89     67.435   -64.685
1124.00     67.103   -65.545
1140.35     66.781   -65.790
1156.94     66.509   -65.498
1173.77     66.345   -64.734
1190.84     66.319   -63.854
1208.16     66.412   -63.252
1225.73     66.604   -63.199
1243.56     66.832   -64.064
1261.65     66.999   -65.691
1280.00     67.100   -67.634
1298.62     67.123   -69.654
1317.51     67.114   -71.290
1336.67     67.147   -72.769
1356.11     67.199   -74.604
1375.84     67.234   -76.754
1395.85     67.210   -79.142
1416.15     67.096   -81.533
1436.75     66.943   -83.517
1457.65     66.787   -85.079
1478.85     66.680   -86.464
1500.36     66.614   -88.029
1522.19     66.516   -89.677
1544.33     66.388   -91.063
1566.79     66.324   -92.067
1589.58     66.329   -92.907
1612.70     66.413   -93.997
1636.16     66.559   -95.704
1659.95     66.664   -97.947
1684.10     66.687  -100.559
1708.60     66.691  -103.212
1733.45     66.684  -105.759
1758.66     66.689  -108.325
1784.24     66.666  -111.063
1810.19     66.589  -113.886
1836.52     66.452  -116.544
1863.24     66.265  -119.061
1890.34     66.061  -121.212
1917.83     65.928  -122.805
1945.73     65.868  -124.154
1974.03     65.898  -125.497
2002.74     66.028  -127.107
2031.87     66.181  -129.593
2061.43     66.323  -133.003
2091.41     66.400  -137.371
2121.83     66.317  -142.252
2152.69     66.099  -146.906
2184.01     65.806  -150.821
2215.77     65.486  -154.199
2248.00     65.134  -157.106
2280.70     64.767  -159.452
2313.87     64.449  -161.146
2347.53     64.247  -162.831
2381.68     64.124  -164.580
2416.32     64.047  -166.042
2451.46     64.082  -167.497
2487.12     64.134  -169.569
2523.30     64.119  -171.996
2560.00     64.048  -174.117
2597.24     64.024  -176.024
2635.01     64.018  -178.128
2673.34     63.971  -179.712
2712.23     64.049   178.987
2751.68     64.198   177.081
2791.70     64.309   174.901
2832.31     64.420   172.507
2873.50     64.460   169.839
2915.30     64.455   167.112
2957.70     64.365   164.179
3000.72     64.237   161.884
3044.37     64.199   159.564
3088.65     64.062   156.964
3133.58     63.901   156.182
3179.16     64.152   154.733
3225.40     64.207   151.173
3272.31     64.117   148.644
3319.91     64.050   146.190
3368.20     63.860   144.572
3417.19     63.763   144.244
3466.89     63.803   143.706
3517.32     63.905   143.378
3568.48     64.191   142.460
3620.39     64.463   140.128
3673.05     64.645   137.393
3726.47     64.698   133.836
3780.67     64.593   130.782
3835.67     64.442   128.754
3891.46     64.321   127.545
3948.06     64.343   126.854
4005.49     64.473   125.656
4063.75     64.642   123.750
4122.86     64.730   120.939
4182.82     64.664   117.810
4243.66     64.464   115.272
4305.39     64.196   113.328
4368.01     63.896   112.355
4431.55     63.668   111.965
4496.01     63.500   111.965
4561.40     63.453   112.304
4627.75     63.439   112.515
4695.06     63.543   112.453
4763.35     63.633   111.999
4832.64     63.713   111.149
4902.93     63.777   110.358
4974.24     63.862   109.459
5046.60     63.969   108.456
5120.00     64.103   107.276
5194.47     64.233   105.495
5270.03     64.303   103.425
5346.68     64.203   100.939
5424.45     64.010    98.760
5503.35     63.688    97.350
5583.40     63.366    96.418
5664.61     63.108    96.209
5747.01     62.811    96.005
5830.60     62.564    96.062
5915.41     62.315    97.075
6001.45     62.129    98.320
6088.74     62.109    99.689
6177.30     62.130   100.869
6267.15     62.185   101.185
6358.31     62.209   100.836
6450.80     62.111   100.723
6544.62     61.912   100.713
6639.82     61.642   101.446
6736.40     61.397   103.156
6834.38     61.194   105.790
6933.79     61.151   108.967
7034.64     61.331   111.699
7136.96     61.588   113.459
7240.77     61.918   114.576
7346.09     62.245   114.345
7452.94     62.406   113.224
7561.35     62.402   112.723
7671.33     62.379   112.584
7782.91     62.341   111.841
7896.12     62.165   111.592
8010.97     62.062   112.043
8127.49     62.120   112.309
8245.71     62.039   112.532
8365.65     61.977   113.809
8487.33     62.057   114.919
8610.78     62.031   115.663
8736.03     61.960   117.119
8863.09     62.041   118.612
8992.01     62.187   119.282
9122.80     62.264   119.449
9255.50     62.311   119.561
9390.12     62.379   119.409
9526.70     62.307   118.590
9665.27     62.148   118.321
9805.86     62.000   118.165
9948.49     61.775   117.979
10093.2     61.573   118.560
10240.0     61.416   119.332
10388.9     61.252   120.242
10540.1     61.112   121.505
10693.4     61.006   122.755
10848.9     60.889   123.944
11006.7     60.775   125.273
11166.8     60.686   126.456
11329.2     60.556   127.500
11494.0     60.376   128.767
11661.2     60.196   130.564
11830.8     60.001   132.684
12002.9     59.863   135.418
12177.5     59.867   138.421
12354.6     59.964   140.796
12534.3     60.137   142.538
12716.6     60.373   142.833
12901.6     60.383   141.257
13089.2     60.098   140.252
13279.6     59.713   139.966
13472.8     59.218   140.901
13668.8     58.807   143.216
13867.6     58.443   145.218
14069.3     58.071   148.239
14273.9     57.806   151.005
14481.5     57.468   153.727
14692.2     57.136   157.207
14905.9     56.754   160.482
15122.7     56.342   164.556
15342.7     56.011   169.449
15565.8     55.775   174.822
15792.2     55.731  -179.246
16021.9     55.976  -173.226
16255.0     56.379  -168.158
16491.4     56.933  -164.463
16731.3     57.428  -162.358
16974.7     57.801  -161.439
17221.6     57.988  -161.026
17472.1     58.035  -160.382
17726.2     57.980  -159.737
17984.0     57.875  -158.277
18245.6     57.739  -157.462
18511.0     57.577  -156.297
18780.2     57.309  -155.205
19053.4     56.964  -153.664
19330.5     56.552  -151.425
19611.7     56.144  -148.261
19897.0     55.823  -143.938
20186.4     55.594  -138.931
20480.0     55.561  -133.688
20777.9     55.715  -128.265
21080.1     56.058  -123.929
21386.7     56.535  -120.369
21697.8     57.029  -118.762
22013.4     57.504  -118.847
22333.6     57.770  -119.648
22658.4     57.790  -121.891
22988.0     57.511  -124.178
23322.4     56.733  -125.841
23661.6     55.509  -124.516
