Freq[Hz]     dBSPL  Phase[Deg]
5.00000    -17.687   -12.567
5.07273    -17.331   -12.655
5.14651    -16.944   -12.750
5.22137    -16.511   -12.855
5.29732    -16.059   -12.966
5.37437    -15.587   -13.082
5.45254    -15.115   -13.200
5.53185    -14.642   -13.319
5.61231    -14.170   -13.440
5.69394    -13.698   -13.563
5.77676    -13.225   -13.688
5.86079    -12.753   -13.814
5.94604    -12.280   -13.943
6.03252    -11.808   -14.073
6.12027    -11.336   -14.205
6.20929    -10.863   -14.339
6.29961    -10.391   -14.474
6.39124     -9.918   -14.612
6.48420     -9.445   -14.752
6.57851     -8.973   -14.893
6.67420     -8.500   -15.037
6.77128     -8.028   -15.183
6.86977     -7.555   -15.331
6.96969     -7.082   -15.481
7.07107     -6.609   -15.633
7.17392     -6.136   -15.788
7.27827     -5.663   -15.945
7.38413     -5.190   -16.104
7.49154     -4.717   -16.266
7.60050     -4.244   -16.430
7.71105     -3.771   -16.596
7.82321     -3.298   -16.765
7.93701     -2.825   -16.937
8.05245     -2.352   -17.111
8.16958     -1.878   -17.288
8.28841     -1.405   -17.468
8.40896     -0.932   -17.650
8.53128     -0.458   -17.835
8.65537      0.015   -18.023
8.78126      0.489   -18.214
8.90899      0.962   -18.407
9.03857      1.436   -18.604
9.17004      1.910   -18.803
9.30342      2.383   -19.005
9.43874      2.857   -19.211
9.57603      3.331   -19.419
9.71532      3.805   -19.631
9.85663      4.279   -19.846
10.0000      4.753   -20.064
10.1455      5.227   -20.285
10.2930      5.701   -20.509
10.4427      6.175   -20.737
10.5946      6.650   -20.968
10.7487      7.124   -21.203
10.9051      7.598   -21.441
11.0637      8.073   -21.683
11.2246      8.548   -21.929
11.3879      9.023   -22.178
11.5535      9.497   -22.431
11.7216      9.972   -22.688
11.8921     10.448   -22.949
12.0650     10.923   -23.214
12.2405     11.398   -23.483
12.4186     11.873   -23.756
12.5992     12.349   -24.033
12.7825     12.825   -24.315
12.9684     13.300   -24.601
13.1570     13.776   -24.892
13.3484     14.252   -25.187
13.5426     14.728   -25.487
13.7395     15.204   -25.791
13.9394     15.681   -26.100
14.1421     16.157   -26.414
14.3478     16.634   -26.732
14.5565     17.111   -27.056
14.7683     17.588   -27.384
14.9831     18.065   -27.718
15.2010     18.542   -28.057
15.4221     19.019   -28.401
15.6464     19.497   -28.751
15.8740     19.975   -29.107
16.1049     20.453   -29.468
16.3392     20.931   -29.835
16.5768     21.409   -30.208
16.8179     21.888   -30.587
17.0626     22.366   -30.972
17.3107     22.845   -31.363
17.5625     23.324   -31.761
17.8180     23.804   -32.165
18.0771     24.283   -32.575
18.3401     24.763   -32.993
18.6068     25.243   -33.417
18.8775     25.723   -33.848
19.1521     26.204   -34.286
19.4306     26.685   -34.732
19.7133     27.165   -35.196
20.0000     27.642   -35.691
20.2909     28.112   -36.219
20.5860     28.571   -36.749
20.8855     29.020   -37.178
21.1893     29.458   -37.466
21.4975     29.892   -37.692
21.8102     30.331   -37.928
22.1274     30.780   -38.203
22.4492     31.247   -38.502
22.7758     31.732   -38.783
23.1071     32.233   -39.118
23.4432     32.747   -39.542
23.7841     33.268   -40.154
24.1301     33.787   -41.092
24.4811     34.298   -42.220
24.8372     34.795   -43.326
25.1984     35.278   -44.310
25.5649     35.752   -45.103
25.9368     36.223   -45.797
26.3141     36.696   -46.519
26.6968     37.174   -47.334
27.0851     37.658   -48.289
27.4791     38.143   -49.349
27.8788     38.628   -50.434
28.2843     39.109   -51.455
28.6957     39.588   -52.419
29.1131     40.066   -53.384
29.5365     40.544   -54.386
29.9661     41.021   -55.475
30.4020     41.498   -56.582
30.8442     41.974   -57.677
31.2929     42.450   -58.796
31.7480     42.925   -59.972
32.2098     43.397   -61.278
32.6783     43.864   -62.706
33.1536     44.323   -63.983
33.6359     44.778   -64.920
34.1251     45.240   -65.454
34.6215     45.728   -65.949
35.1250     46.245   -66.726
35.6359     46.782   -67.930
36.1543     47.320   -69.367
36.6802     47.849   -70.869
37.2137     48.367   -72.304
37.7550     48.877   -73.661
38.3041     49.389   -75.085
38.8613     49.908   -76.794
39.4265     50.425   -78.611
40.0000     50.937   -80.345
40.5818     51.443   -81.860
41.1721     51.949   -83.307
41.7710     52.460   -84.866
42.3785     52.975   -86.689
42.9949     53.490   -88.791
43.6203     53.995   -91.080
44.2548     54.485   -93.412
44.8985     54.959   -95.635
45.5515     55.420   -97.663
46.2141     55.874   -99.534
46.8863     56.329  -101.348
47.5683     56.790  -103.194
48.2602     57.258  -105.142
48.9621     57.733  -107.203
49.6743     58.212  -109.355
50.3968     58.692  -111.578
51.1299     59.170  -113.852
51.8736     59.645  -116.163
52.6281     60.116  -118.522
53.3936     60.581  -120.945
54.1702     61.041  -123.443
54.9581     61.493  -126.001
55.7575     61.938  -128.620
56.5685     62.376  -131.307
57.3914     62.806  -134.030
58.2261     63.229  -136.774
59.0730     63.644  -139.557
59.9323     64.050  -142.402
60.8040     64.446  -145.310
61.6884     64.832  -148.267
62.5857     65.210  -151.269
63.4960     65.578  -154.316
64.4196     65.933  -157.399
65.3566     66.273  -160.517
66.3073     66.600  -163.669
67.2717     66.915  -166.846
68.2502     67.223  -170.033
69.2429     67.526  -173.238
70.2501     67.820  -176.478
71.2719     68.100  -179.770
72.3086     68.359   176.910
73.3603     68.596   173.607
74.4274     68.816   170.341
75.5099     69.020   167.119
76.6083     69.214   163.927
77.7226     69.399   160.743
78.8531     69.571   157.565
80.0000     69.731   154.396
81.1636     69.876   151.259
82.3442     70.008   148.183
83.5419     70.128   145.163
84.7570     70.236   142.200
85.9899     70.335   139.301
87.2406     70.425   136.465
88.5096     70.507   133.688
89.7970     70.584   130.969
91.1031     70.657   128.298
92.4282     70.727   125.664
93.7726     70.793   123.069
95.1366     70.853   120.512
96.5204     70.908   117.983
97.9243     70.957   115.484
99.3486     70.997   113.024
100.794     71.031   110.609
102.260     71.059   108.246
103.747     71.081   105.949
105.256     71.103   103.722
106.787     71.127   101.534
108.340     71.151    99.349
109.916     71.171    97.174
111.515     71.185    95.020
113.137     71.190    92.897
114.783     71.189    90.830
116.452     71.186    88.816
118.146     71.183    86.827
119.865     71.176    84.853
121.608     71.164    82.900
123.377     71.143    80.996
125.171     71.116    79.168
126.992     71.088    77.417
128.839     71.063    75.722
130.713     71.042    74.063
132.615     71.022    72.408
134.543     71.000    70.750
136.500     70.972    69.115
138.486     70.939    67.534
140.500     70.905    66.021
142.544     70.874    64.574
144.617     70.848    63.172
146.721     70.828    61.788
148.855     70.811    60.404
151.020     70.793    59.017
153.217     70.773    57.636
155.445     70.751    56.277
157.706     70.729    54.932
160.000     70.704    53.594
162.327     70.676    52.280
164.688     70.646    51.005
167.084     70.615    49.779
169.514     70.589    48.604
171.980     70.568    47.445
174.481     70.549    46.277
177.019     70.530    45.103
179.594     70.507    43.919
182.206     70.479    42.745
184.856     70.449    41.606
187.545     70.419    40.496
190.273     70.388    39.416
193.041     70.358    38.375
195.849     70.331    37.361
198.697     70.308    36.356
201.587     70.288    35.328
204.520     70.262    34.263
207.494     70.225    33.216
210.512     70.177    32.260
213.574     70.129    31.446
216.681     70.097    30.744
219.833     70.088    30.045
223.030     70.096    29.249
226.274     70.106    28.304
229.565     70.103    27.248
232.905     70.082    26.191
236.292     70.048    25.214
239.729     70.013    24.345
243.216     69.982    23.560
246.754     69.960    22.810
250.343     69.943    22.070
253.984     69.931    21.336
257.678     69.926    20.610
261.426     69.933    19.855
265.229     69.947    19.005
269.087     69.955    18.042
273.001     69.949    17.021
276.972     69.926    16.007
281.000     69.888    15.103
285.088     69.855    14.364
289.234     69.839    13.699
293.441     69.845    12.995
297.709     69.862    12.185
302.040     69.878    11.252
306.433     69.886    10.235
310.890     69.880     9.157
315.412     69.850     8.080
320.000     69.805     7.080
324.655     69.751     6.146
329.377     69.692     5.299
334.168     69.645     4.542
339.028     69.609     3.784
343.959     69.577     2.986
348.962     69.542     2.165
354.038     69.497     1.332
359.188     69.441     0.546
364.412     69.380    -0.144
369.713     69.325    -0.783
375.090     69.277    -1.391
380.546     69.237    -1.973
386.081     69.204    -2.593
391.697     69.168    -3.234
397.394     69.124    -3.887
403.175     69.062    -4.508
409.039     68.990    -4.942
414.989     68.937    -5.181
421.025     68.916    -5.348
427.149     68.927    -5.532
433.362     68.966    -5.851
439.665     69.009    -6.417
446.060     69.033    -7.139
452.548     69.047    -7.862
459.131     69.060    -8.628
465.809     69.068    -9.488
472.584     69.070   -10.442
479.458     69.048   -11.521
486.432     68.981   -12.615
493.507     68.868   -13.437
500.686     68.749   -13.803
507.968     68.667   -13.821
515.357     68.639   -13.671
522.853     68.672   -13.514
530.458     68.761   -13.595
538.174     68.873   -14.051
546.002     68.988   -14.898
553.943     69.077   -16.098
562.001     69.113   -17.467
570.175     69.085   -18.804
578.469     69.001   -19.847
586.883     68.909   -20.424
595.419     68.851   -20.724
604.080     68.837   -21.028
612.866     68.858   -21.508
621.780     68.870   -22.178
630.824     68.858   -22.866
640.000     68.847   -23.423
649.309     68.854   -23.850
658.753     68.902   -24.334
668.335     68.974   -25.070
678.056     69.027   -26.066
687.919     69.051   -27.121
697.925     69.062   -28.043
708.077     69.094   -28.999
718.376     69.113   -30.384
728.825     69.019   -31.765
739.426     68.893   -32.391
750.181     68.850   -32.582
761.093     68.881   -32.888
772.163     68.936   -33.420
783.394     69.004   -34.073
794.789     69.087   -34.905
806.349     69.168   -35.985
818.078     69.238   -37.307
829.977     69.277   -38.868
842.050     69.271   -40.424
854.298     69.247   -41.709
866.724     69.223   -42.838
879.330     69.196   -43.862
892.120     69.193   -44.735
905.097     69.224   -45.726
918.262     69.251   -46.922
931.618     69.279   -48.200
945.169     69.314   -49.563
958.917     69.334   -50.961
972.864     69.358   -52.475
987.015     69.383   -54.235
1001.37     69.382   -56.072
1015.94     69.377   -58.014
1030.71     69.350   -60.140
1045.71     69.271   -62.207
1060.92     69.157   -64.153
1076.35     69.000   -66.016
1092.00     68.789   -67.672
1107.89     68.548   -68.953
1124.00     68.313   -69.695
1140.35     68.123   -69.928
1156.94     68.004   -69.889
1173.77     67.984   -69.796
1190.84     68.053   -70.029
1208.16     68.164   -70.710
1225.73     68.301   -71.835
1243.56     68.426   -73.494
1261.65     68.493   -75.433
1280.00     68.514   -77.420
1298.62     68.476   -79.337
1317.51     68.427   -80.931
1336.67     68.419   -82.402
1356.11     68.402   -84.009
1375.84     68.380   -85.565
1395.85     68.357   -87.208
1416.15     68.291   -88.867
1436.75     68.224   -90.242
1457.65     68.189   -91.535
1478.85     68.177   -92.822
1500.36     68.204   -94.065
1522.19     68.249   -95.569
1544.33     68.309   -97.119
1566.79     68.378   -98.816
1589.58     68.449  -100.742
1612.70     68.518  -102.911
1636.16     68.546  -105.528
1659.95     68.521  -108.288
1684.10     68.425  -111.081
1708.60     68.245  -113.582
1733.45     68.058  -115.280
1758.66     67.898  -116.455
1784.24     67.789  -117.241
1810.19     67.769  -117.846
1836.52     67.828  -118.667
1863.24     67.947  -119.685
1890.34     68.118  -121.282
1917.83     68.321  -123.434
1945.73     68.519  -125.974
1974.03     68.674  -129.150
2002.74     68.742  -132.589
2031.87     68.705  -136.024
2061.43     68.564  -139.220
2091.41     68.365  -142.033
2121.83     68.140  -144.178
2152.69     67.956  -145.766
2184.01     67.864  -147.062
2215.77     67.858  -148.383
2248.00     67.895  -150.026
2280.70     67.959  -152.315
2313.87     67.996  -155.014
2347.53     67.961  -157.691
2381.68     67.910  -159.980
2416.32     67.856  -161.954
2451.46     67.779  -163.325
2487.12     67.751  -164.241
2523.30     67.802  -165.044
2560.00     67.939  -166.200
2597.24     68.140  -167.839
2635.01     68.337  -169.998
2673.34     68.498  -172.943
2712.23     68.549  -176.078
2751.68     68.478  -179.015
2791.70     68.374   178.442
2832.31     68.242   176.558
2873.50     68.146   175.022
2915.30     68.135   173.706
2957.70     68.170   172.255
3000.72     68.204   170.418
3044.37     68.205   168.415
3088.65     68.098   166.323
3133.58     67.887   165.391
3179.16     67.907   165.195
3225.40     67.948   163.969
3272.31     67.964   163.148
3319.91     68.046   162.459
3368.20     68.207   161.540
3417.19     68.389   160.124
3466.89     68.522   158.245
3517.32     68.609   155.994
3568.48     68.614   153.666
3620.39     68.555   151.715
3673.05     68.498   150.151
3726.47     68.448   148.788
3780.67     68.429   147.527
3835.67     68.404   146.150
3891.46     68.346   144.852
3948.06     68.278   143.691
4005.49     68.213   142.894
4063.75     68.195   142.122
4122.86     68.201   141.041
4182.82     68.184   139.752
4243.66     68.107   138.419
4305.39     67.962   137.490
4368.01     67.826   137.304
4431.55     67.753   137.483
4496.01     67.750   137.619
4561.40     67.804   137.381
4627.75     67.839   136.634
4695.06     67.811   135.818
4763.35     67.763   135.180
4832.64     67.710   134.733
4902.93     67.669   134.581
4974.24     67.658   134.350
5046.60     67.649   134.056
5120.00     67.655   133.736
5194.47     67.667   133.014
5270.03     67.637   132.025
5346.68     67.538   131.051
5424.45     67.388   130.329
5503.35     67.211   130.053
5583.40     67.052   130.112
5664.61     66.911   130.221
5747.01     66.765   130.337
5830.60     66.600   130.617
5915.41     66.443   131.313
6001.45     66.294   132.368
6088.74     66.186   133.644
6177.30     66.091   135.153
6267.15     65.998   136.804
6358.31     65.936   138.619
6450.80     65.917   140.601
6544.62     65.943   142.583
6639.82     66.049   144.388
6736.40     66.150   145.890
6834.38     66.231   147.386
6933.79     66.378   148.944
7034.64     66.558   150.166
7136.96     66.733   151.107
7240.77     66.985   151.908
7346.09     67.251   152.128
7452.94     67.466   151.736
7561.35     67.636   151.088
7671.33     67.713   150.090
7782.91     67.682   149.150
7896.12     67.571   148.655
8010.97     67.390   148.592
8127.49     67.190   149.169
8245.71     67.023   150.299
8365.65     66.911   151.620
8487.33     66.858   152.899
8610.78     66.815   154.076
8736.03     66.779   155.417
8863.09     66.788   156.780
8992.01     66.784   157.878
9122.80     66.751   159.273
9255.50     66.783   160.804
9390.12     66.854   161.931
9526.70     66.907   162.732
9665.27     66.915   163.362
9805.86     66.903   164.030
9948.49     66.851   164.584
10093.2     66.743   165.513
10240.0     66.698   166.754
10388.9     66.681   167.557
10540.1     66.629   168.067
10693.4     66.507   168.214
10848.9     66.237   168.636
11006.7     65.880   169.743
11166.8     65.439   171.808
11329.2     65.045   175.118
11494.0     64.772   178.924
11661.2     64.624  -176.932
11830.8     64.605  -172.898
12002.9     64.679  -169.159
12177.5     64.799  -165.827
12354.6     64.981  -162.802
12534.3     65.224  -160.428
12716.6     65.474  -159.206
12901.6     65.579  -158.971
13089.2     65.506  -158.869
13279.6     65.270  -158.112
13472.8     65.071  -156.689
13668.8     64.807  -155.376
13867.6     64.515  -153.405
14069.3     64.207  -151.116
14273.9     63.861  -148.153
14481.5     63.583  -144.448
14692.2     63.351  -140.386
14905.9     63.182  -136.148
15122.7     63.109  -131.700
15342.7     63.056  -127.515
15565.8     63.097  -123.400
15792.2     63.153  -119.512
16021.9     63.243  -116.042
16255.0     63.356  -112.899
16491.4     63.413  -110.208
16731.3     63.441  -107.844
16974.7     63.357  -105.366
17221.6     63.212  -102.633
17472.1     62.997   -99.364
17726.2     62.729   -95.429
17984.0     62.447   -90.784
18245.6     62.201   -85.234
18511.0     62.039   -79.052
18780.2     62.048   -72.543
19053.4     62.252   -66.095
19330.5     62.656   -60.318
19611.7     63.184   -55.873
19897.0     63.749   -52.722
20186.4     64.269   -50.686
20480.0     64.709   -49.465
20777.9     65.049   -48.703
21080.1     65.301   -48.090
21386.7     65.464   -47.613
21697.8     65.538   -47.222
22013.4     65.544   -46.787
22333.6     65.494   -46.588
22658.4     65.341   -46.817
22988.0     64.984   -47.671
23322.4     64.234   -48.542
23661.6     62.945   -46.343
