Freq[Hz]     dBSPL  Phase[Deg]
5.00000     22.331  -118.848
5.07273     22.387  -119.867
5.14651     22.459  -121.191
5.22137     22.557  -122.971
5.29732     22.664  -124.937
5.37437     22.783  -127.113
5.45254     22.902  -129.289
5.53185     23.020  -131.465
5.61231     23.145  -133.614
5.69394     23.281  -135.698
5.77676     23.446  -137.625
5.86079     23.651  -139.333
5.94604     23.895  -140.821
6.03252     24.176  -142.091
6.12027     24.483  -143.206
6.20929     24.801  -144.259
6.29961     25.122  -145.286
6.39124     25.443  -146.313
6.48420     25.765  -147.340
6.57851     26.086  -148.367
6.67420     26.407  -149.394
6.77128     26.729  -150.422
6.86977     27.050  -151.450
6.96969     27.371  -152.478
7.07107     27.693  -153.506
7.17392     28.014  -154.535
7.27827     28.335  -155.563
7.38413     28.656  -156.592
7.49154     28.978  -157.621
7.60050     29.299  -158.651
7.71105     29.620  -159.680
7.82321     29.942  -160.710
7.93701     30.263  -161.740
8.05245     30.584  -162.771
8.16958     30.906  -163.801
8.28841     31.227  -164.832
8.40896     31.547  -165.856
8.53128     31.866  -166.862
8.65537     32.180  -167.824
8.78126     32.488  -168.723
8.90899     32.789  -169.558
9.03857     33.085  -170.329
9.17004     33.376  -171.053
9.30342     33.665  -171.758
9.43874     33.954  -172.454
9.57603     34.243  -173.150
9.71532     34.532  -173.846
9.85663     34.820  -174.542
10.0000     35.109  -175.239
10.1455     35.398  -175.936
10.2930     35.687  -176.633
10.4427     35.975  -177.331
10.5946     36.264  -178.029
10.7487     36.553  -178.727
10.9051     36.842  -179.426
11.0637     37.130   179.875
11.2246     37.419   179.177
11.3879     37.706   178.481
11.5535     37.991   177.791
11.7216     38.273   177.109
11.8921     38.552   176.436
12.0650     38.827   175.770
12.2405     39.101   175.111
12.4186     39.375   174.453
12.5992     39.647   173.797
12.7825     39.920   173.140
12.9684     40.193   172.482
13.1570     40.466   171.824
13.3484     40.738   171.166
13.5426     41.011   170.507
13.7395     41.284   169.848
13.9394     41.557   169.188
14.1421     41.829   168.529
14.3478     42.101   167.869
14.5565     42.372   167.209
14.7683     42.641   166.550
14.9831     42.910   165.891
15.2010     43.178   165.232
15.4221     43.445   164.572
15.6464     43.712   163.913
15.8740     43.979   163.253
16.1049     44.246   162.593
16.3392     44.513   161.932
16.5768     44.780   161.270
16.8179     45.047   160.608
17.0626     45.313   159.945
17.3107     45.577   159.281
17.5625     45.838   158.616
17.8180     46.097   157.948
18.0771     46.353   157.279
18.3401     46.607   156.609
18.6068     46.860   155.938
18.8775     47.113   155.266
19.1521     47.366   154.594
19.4306     47.619   153.920
19.7133     47.872   153.246
20.0000     48.124   152.568
20.2909     48.375   151.885
20.5860     48.625   151.196
20.8855     48.873   150.500
21.1893     49.120   149.798
21.4975     49.366   149.092
21.8102     49.612   148.384
22.1274     49.858   147.675
22.4492     50.103   146.964
22.7758     50.348   146.251
23.1071     50.592   145.534
23.4432     50.835   144.811
23.7841     51.077   144.082
24.1301     51.317   143.347
24.4811     51.556   142.607
24.8372     51.795   141.866
25.1984     52.034   141.122
25.5649     52.272   140.376
25.9368     52.509   139.625
26.3141     52.745   138.867
26.6968     52.979   138.103
27.0851     53.212   137.331
27.4791     53.443   136.554
27.8788     53.675   135.774
28.2843     53.905   134.990
28.6957     54.135   134.203
29.1131     54.364   133.409
29.5365     54.592   132.609
29.9661     54.819   131.802
30.4020     55.044   130.989
30.8442     55.269   130.172
31.2929     55.493   129.351
31.7480     55.717   128.524
32.2098     55.939   127.690
32.6783     56.159   126.848
33.1536     56.378   125.999
33.6359     56.597   125.144
34.1251     56.814   124.284
34.6215     57.031   123.418
35.1250     57.246   122.545
35.6359     57.459   121.665
36.1543     57.672   120.778
36.6802     57.883   119.884
37.2137     58.093   118.985
37.7550     58.302   118.077
38.3041     58.510   117.162
38.8613     58.716   116.239
39.4265     58.921   115.308
40.0000     59.125   114.370
40.5818     59.327   113.424
41.1721     59.528   112.470
41.7710     59.728   111.509
42.3785     59.926   110.539
42.9949     60.123   109.561
43.6203     60.319   108.576
44.2548     60.513   107.582
44.8985     60.705   106.580
45.5515     60.896   105.568
46.2141     61.086   104.547
46.8863     61.274   103.516
47.5683     61.461   102.475
48.2602     61.647   101.424
48.9621     61.832   100.360
49.6743     62.016    99.285
50.3968     62.198    98.200
51.1299     62.380    97.103
51.8736     62.560    95.994
52.6281     62.739    94.873
53.3936     62.916    93.742
54.1702     63.092    92.601
54.9581     63.266    91.448
55.7575     63.438    90.285
56.5685     63.609    89.112
57.3914     63.778    87.929
58.2261     63.945    86.736
59.0730     64.111    85.535
59.9323     64.274    84.327
60.8040     64.435    83.109
61.6884     64.595    81.883
62.5857     64.752    80.648
63.4960     64.906    79.404
64.4196     65.059    78.148
65.3566     65.208    76.881
66.3073     65.355    75.600
67.2717     65.500    74.305
68.2502     65.641    72.996
69.2429     65.781    71.671
70.2501     65.917    70.330
71.2719     66.051    68.975
72.3086     66.184    67.604
73.3603     66.314    66.219
74.4274     66.442    64.820
75.5099     66.569    63.409
76.6083     66.694    61.987
77.7226     66.818    60.556
78.8531     66.939    59.115
80.0000     67.057    57.666
81.1636     67.174    56.208
82.3442     67.287    54.740
83.5419     67.398    53.263
84.7570     67.506    51.775
85.9899     67.611    50.276
87.2406     67.713    48.766
88.5096     67.812    47.245
89.7970     67.909    45.711
91.1031     68.002    44.163
92.4282     68.093    42.601
93.7726     68.182    41.024
95.1366     68.269    39.434
96.5204     68.354    37.832
97.9243     68.438    36.224
99.3486     68.519    34.613
100.794     68.597    32.999
102.260     68.671    31.380
103.747     68.741    29.750
105.256     68.808    28.104
106.787     68.872    26.440
108.340     68.934    24.760
109.916     68.995    23.070
111.515     69.055    21.375
113.137     69.112    19.676
114.783     69.165    17.974
116.452     69.215    16.264
118.146     69.261    14.541
119.865     69.305    12.803
121.608     69.346    11.052
123.377     69.386     9.292
125.171     69.424     7.527
126.992     69.460     5.760
128.839     69.493     3.992
130.713     69.523     2.222
132.615     69.550     0.448
134.543     69.575    -1.328
136.500     69.597    -3.103
138.486     69.616    -4.873
140.500     69.633    -6.639
142.544     69.647    -8.402
144.617     69.659   -10.161
146.721     69.668   -11.917
148.855     69.677   -13.670
151.020     69.684   -15.417
153.217     69.690   -17.158
155.445     69.695   -18.897
157.706     69.699   -20.632
160.000     69.701   -22.367
162.327     69.703   -24.101
164.688     69.703   -25.835
167.084     69.704   -27.570
169.514     69.703   -29.306
171.980     69.702   -31.046
174.481     69.700   -32.790
177.019     69.697   -34.536
179.594     69.694   -36.288
182.206     69.690   -38.045
184.856     69.685   -39.809
187.545     69.680   -41.580
190.273     69.673   -43.355
193.041     69.664   -45.138
195.849     69.655   -46.927
198.697     69.645   -48.720
201.587     69.633   -50.519
204.520     69.620   -52.321
207.494     69.606   -54.125
210.512     69.590   -55.929
213.574     69.574   -57.733
216.681     69.556   -59.536
219.833     69.538   -61.336
223.030     69.521   -63.134
226.274     69.504   -64.928
229.565     69.489   -66.720
232.905     69.476   -68.511
236.292     69.465   -70.303
239.729     69.458   -72.101
243.216     69.455   -73.908
246.754     69.455   -75.731
250.343     69.461   -77.576
253.984     69.471   -79.453
257.678     69.487   -81.373
261.426     69.509   -83.347
265.229     69.537   -85.386
269.087     69.571   -87.502
273.001     69.609   -89.703
276.972     69.650   -91.999
281.000     69.692   -94.398
285.088     69.732   -96.903
289.234     69.769   -99.520
293.441     69.800  -102.245
297.709     69.822  -105.074
302.040     69.832  -107.997
306.433     69.827  -111.000
310.890     69.806  -114.064
315.412     69.765  -117.171
320.000     69.704  -120.293
324.655     69.623  -123.407
329.377     69.520  -126.484
334.168     69.396  -129.500
339.028     69.255  -132.431
343.959     69.098  -135.258
348.962     68.929  -137.964
354.038     68.751  -140.534
359.188     68.567  -142.959
364.412     68.381  -145.237
369.713     68.195  -147.370
375.090     68.013  -149.372
380.546     67.839  -151.259
386.081     67.676  -153.053
391.697     67.528  -154.777
397.394     67.396  -156.457
403.175     67.281  -158.119
409.039     67.184  -159.787
414.989     67.104  -161.486
421.025     67.042  -163.237
427.149     66.996  -165.057
433.362     66.964  -166.961
439.665     66.946  -168.959
446.060     66.940  -171.059
452.548     66.945  -173.270
459.131     66.959  -175.601
465.809     66.983  -178.060
472.584     67.014   179.336
479.458     67.052   176.575
486.432     67.096   173.635
493.507     67.143   170.496
500.686     67.190   167.134
507.968     67.234   163.529
515.357     67.266   159.673
522.853     67.280   155.577
530.458     67.267   151.282
538.174     67.220   146.863
546.002     67.132   142.425
553.943     67.002   138.097
562.001     66.832   134.006
570.175     66.629   130.252
578.469     66.407   126.893
586.883     66.180   123.928
595.419     65.965   121.297
604.080     65.776   118.902
612.866     65.623   116.621
621.780     65.512   114.325
630.824     65.441   111.906
640.000     65.405   109.288
649.309     65.395   106.429
658.753     65.400   103.330
668.335     65.413   100.024
678.056     65.430    96.566
687.919     65.450    93.015
697.925     65.476    89.417
708.077     65.515    85.795
718.376     65.574    82.137
728.825     65.656    78.396
739.426     65.761    74.506
750.181     65.885    70.396
761.093     66.020    66.002
772.163     66.158    61.287
783.394     66.291    56.249
794.789     66.415    50.905
806.349     66.530    45.282
818.078     66.636    39.408
829.977     66.735    33.291
842.050     66.825    26.930
854.298     66.900    20.325
866.724     66.954    13.495
879.330     66.980     6.482
892.120     66.976    -0.656
905.097     66.942    -7.859
918.262     66.882   -15.084
931.618     66.798   -22.326
945.169     66.691   -29.604
958.917     66.556   -36.934
972.864     66.381   -44.294
987.015     66.158   -51.612
1001.37     65.884   -58.780
1015.94     65.563   -65.700
1030.71     65.205   -72.309
1045.71     64.828   -78.627
1060.92     64.441   -84.726
1076.35     64.054   -90.632
1092.00     63.671   -96.383
1107.89     63.292  -101.989
1124.00     62.926  -107.366
1140.35     62.583  -112.499
1156.94     62.266  -117.453
1173.77     61.986  -122.264
1190.84     61.747  -127.013
1208.16     61.555  -131.851
1225.73     61.411  -136.880
1243.56     61.319  -142.161
1261.65     61.284  -147.815
1280.00     61.298  -153.890
1298.62     61.359  -160.456
1317.51     61.449  -167.618
1336.67     61.551  -175.358
1356.11     61.649   176.350
1375.84     61.718   167.557
1395.85     61.752   158.357
1416.15     61.735   148.792
1436.75     61.664   138.939
1457.65     61.545   128.893
1478.85     61.385   118.732
1500.36     61.204   108.511
1522.19     60.998    98.299
1544.33     60.768    88.163
1566.79     60.488    78.173
1589.58     60.125    68.575
1612.70     59.680    59.693
1636.16     59.178    51.740
1659.95     58.689    44.779
1684.10     58.313    38.558
1708.60     58.128    32.516
1733.45     58.173    25.889
1758.66     58.400    18.055
1784.24     58.742     8.807
1810.19     59.131    -1.900
1836.52     59.494   -13.908
1863.24     59.806   -26.899
1890.34     60.044   -40.558
1917.83     60.186   -54.503
1945.73     60.236   -68.560
1974.03     60.181   -82.689
2002.74     60.039   -96.902
2031.87     59.846  -111.383
2061.43     59.621  -126.257
2091.41     59.388  -141.447
2121.83     59.132  -156.808
2152.69     58.825  -172.143
2184.01     58.453   172.714
2215.77     58.016   157.762
2248.00     57.556   142.912
2280.70     57.106   127.931
2313.87     56.654   112.523
2347.53     56.174    96.502
2381.68     55.621    79.816
2416.32     54.973    62.812
2451.46     54.287    46.548
2487.12     53.682    32.325
2523.30     53.293    20.770
2560.00     53.207    11.508
2597.24     53.397     3.076
2635.01     53.737    -6.226
2673.34     54.070   -17.531
2712.23     54.329   -31.103
2751.68     54.511   -46.625
2791.70     54.676   -63.662
2832.31     54.895   -81.667
2873.50     55.181  -100.455
2915.30     55.504  -120.228
2957.70     55.779  -141.010
3000.72     55.940  -162.597
3044.37     55.961   175.797
3088.65     55.839   155.108
3133.58     55.637   136.037
3179.16     55.422   118.654
3225.40     55.215   102.243
3272.31     55.014    86.061
3319.91     54.789    69.567
3368.20     54.508    52.947
3417.19     54.204    36.932
3466.89     53.955    22.143
3517.32     53.857     8.458
3568.48     53.936    -5.218
3620.39     54.104   -19.907
3673.05     54.299   -36.146
3726.47     54.501   -54.181
3780.67     54.746   -73.594
3835.67     55.109   -93.778
3891.46     55.624  -114.702
3948.06     56.261  -136.879
4005.49     56.899  -160.970
4063.75     57.409   172.505
4122.86     57.697   143.647
4182.82     57.708   113.283
4243.66     57.438    82.436
4305.39     56.884    51.075
4368.01     56.055    17.994
4431.55     55.074   -21.304
4496.01     54.242   -72.304
4561.40     53.930  -135.165
4627.75     54.039   154.116
4695.06     53.903    80.840
4763.35     53.206     9.876
4832.64     52.326   -54.925
4902.93     51.624  -108.564
4974.24     51.127  -148.584
5046.60     50.742  -179.170
5120.00     50.368   154.800
5194.47     49.979   130.168
5270.03     49.535   103.203
5346.68     49.089    79.706
5424.45     48.633    55.220
5503.35     48.288    46.387
5583.40     47.935    43.299
5664.61     47.462    44.986
5747.01     46.731    68.045
5830.60     45.618   101.765
5915.41     44.493   146.252
6001.45     44.023  -151.568
6088.74     43.589   -98.879
6177.30     43.023   -56.316
6267.15     42.911   -31.582
6358.31     43.126   -41.046
6450.80     43.533   -80.236
6544.62     44.108  -131.697
6639.82     44.748   166.100
6736.40     45.371   105.160
6834.38     46.002    55.451
6933.79     46.536    10.000
7034.64     46.934   -31.338
7136.96     47.166   -74.942
7240.77     47.218  -120.407
7346.09     47.100  -172.118
7452.94     46.858   132.522
7561.35     46.521    71.521
7671.33     46.049     4.289
7782.91     45.541   -62.518
7896.12     45.181  -119.428
8010.97     45.143  -176.276
8127.49     45.456   121.121
8245.71     46.075    51.885
8365.65     46.868   -34.771
8487.33     47.736  -136.178
8610.78     48.460   122.375
8736.03     48.907    47.014
8863.09     49.073     1.218
8992.01     48.940   -14.253
9122.80     48.490     4.995
9255.50     47.815    24.228
9390.12     47.034    26.479
9526.70     46.307    16.921
9665.27     45.738     6.840
9805.86     45.329    10.820
9948.49     44.973    31.301
10093.2     44.692    79.251
10240.0     44.479   126.394
10388.9     44.326   148.199
10540.1     44.289   150.538
10693.4     44.210   126.258
10848.9     44.055   101.187
11006.7     43.815    84.522
11166.8     43.499    69.793
11329.2     43.075    60.375
11494.0     42.581    45.898
11661.2     42.098    12.746
11830.8     41.720   -35.177
12002.9     41.523   -97.565
12177.5     41.479  -163.056
12354.6     41.598   120.111
12534.3     41.848    36.780
12716.6     42.131   -44.065
12901.6     42.429  -127.972
13089.2     42.681   147.425
13279.6     42.828    83.231
13472.8     42.886    41.089
13668.8     42.847    22.090
13867.6     42.765    36.311
14069.3     42.638    80.172
14273.9     42.500   143.903
14481.5     42.365  -133.752
14692.2     42.169   -50.907
14905.9     41.941    19.424
15122.7     41.649    61.981
15342.7     41.285    71.665
15565.8     40.918    50.955
15792.2     40.597    26.323
16021.9     40.406     3.073
16255.0     40.359   -22.927
16491.4     40.401   -39.242
16731.3     40.446   -48.864
16974.7     40.395   -60.557
17221.6     40.275   -57.950
17472.1     40.110   -59.472
17726.2     39.944   -63.483
17984.0     39.814   -71.724
18245.6     39.688  -100.761
18511.0     39.532  -115.947
18780.2     39.333  -112.845
19053.4     39.039   -99.973
19330.5     38.795   -56.916
19611.7     38.472   -21.529
19897.0     38.341     5.433
20186.4     38.253    30.496
20480.0     38.054    29.317
20777.9     37.713    31.540
21080.1     37.280    30.185
21386.7     36.731    19.944
21697.8     35.943    25.640
22013.4     34.914    37.626
22333.6     34.195    61.962
22658.4     32.993    88.354
22988.0     31.491   101.898
23322.4     30.214   104.990
23661.6     28.964    83.775
