Freq[Hz]     dBSPL  Phase[Deg]
5.00000     22.944  -116.743
5.07273     23.000  -117.750
5.14651     23.072  -119.060
5.22137     23.169  -120.820
5.29732     23.276  -122.764
5.37437     23.394  -124.917
5.45254     23.512  -127.070
5.53185     23.631  -129.222
5.61231     23.754  -131.346
5.69394     23.890  -133.406
5.77676     24.054  -135.307
5.86079     24.258  -136.986
5.94604     24.501  -138.442
6.03252     24.782  -139.678
6.12027     25.088  -140.757
6.20929     25.404  -141.774
6.29961     25.724  -142.764
6.39124     26.044  -143.754
6.48420     26.365  -144.745
6.57851     26.685  -145.735
6.67420     27.005  -146.726
6.77128     27.325  -147.717
6.86977     27.645  -148.708
6.96969     27.965  -149.699
7.07107     28.285  -150.691
7.17392     28.606  -151.683
7.27827     28.926  -152.675
7.38413     29.246  -153.667
7.49154     29.566  -154.659
7.60050     29.886  -155.652
7.71105     30.206  -156.645
7.82321     30.526  -157.638
7.93701     30.846  -158.632
8.05245     31.167  -159.625
8.16958     31.487  -160.619
8.28841     31.807  -161.613
8.40896     32.126  -162.600
8.53128     32.443  -163.569
8.65537     32.756  -164.492
8.78126     33.062  -165.352
8.90899     33.362  -166.145
9.03857     33.656  -166.872
9.17004     33.946  -167.552
9.30342     34.233  -168.211
9.43874     34.520  -168.862
9.57603     34.807  -169.512
9.71532     35.094  -170.163
9.85663     35.381  -170.814
10.0000     35.668  -171.466
10.1455     35.955  -172.117
10.2930     36.242  -172.769
10.4427     36.529  -173.421
10.5946     36.816  -174.074
10.7487     37.103  -174.727
10.9051     37.390  -175.380
11.0637     37.677  -176.034
11.2246     37.963  -176.687
11.3879     38.249  -177.337
11.5535     38.532  -177.981
11.7216     38.812  -178.615
11.8921     39.088  -179.240
12.0650     39.362  -179.856
12.2405     39.634   179.534
12.4186     39.905   178.927
12.5992     40.176   178.321
12.7825     40.446   177.714
12.9684     40.717   177.107
13.1570     40.987   176.499
13.3484     41.258   175.891
13.5426     41.529   175.283
13.7395     41.799   174.674
13.9394     42.070   174.065
14.1421     42.340   173.454
14.3478     42.609   172.842
14.5565     42.877   172.227
14.7683     43.144   171.609
14.9831     43.409   170.988
15.2010     43.674   170.364
15.4221     43.937   169.739
15.6464     44.201   169.112
15.8740     44.464   168.485
16.1049     44.727   167.858
16.3392     44.991   167.230
16.5768     45.254   166.601
16.8179     45.517   165.972
17.0626     45.779   165.343
17.3107     46.040   164.715
17.5625     46.299   164.088
17.8180     46.555   163.461
18.0771     46.810   162.836
18.3401     47.062   162.212
18.6068     47.315   161.587
18.8775     47.567   160.962
19.1521     47.819   160.336
19.4306     48.071   159.710
19.7133     48.322   159.082
20.0000     48.574   158.451
20.2909     48.824   157.815
20.5860     49.073   157.173
20.8855     49.320   156.525
21.1893     49.566   155.870
21.4975     49.812   155.212
21.8102     50.057   154.552
22.1274     50.303   153.890
22.4492     50.548   153.227
22.7758     50.792   152.562
23.1071     51.036   151.892
23.4432     51.279   151.217
23.7841     51.520   150.536
24.1301     51.760   149.849
24.4811     52.000   149.158
24.8372     52.239   148.465
25.1984     52.478   147.770
25.5649     52.717   147.072
25.9368     52.954   146.369
26.3141     53.190   145.660
26.6968     53.425   144.945
27.0851     53.659   144.222
27.4791     53.892   143.494
27.8788     54.124   142.762
28.2843     54.355   142.028
28.6957     54.587   141.290
29.1131     54.817   140.546
29.5365     55.046   139.795
29.9661     55.274   139.037
30.4020     55.501   138.274
30.8442     55.728   137.506
31.2929     55.954   136.735
31.7480     56.179   135.958
32.2098     56.403   135.174
32.6783     56.626   134.382
33.1536     56.847   133.583
33.6359     57.068   132.778
34.1251     57.288   131.969
34.6215     57.507   131.154
35.1250     57.724   130.332
35.6359     57.941   129.503
36.1543     58.156   128.667
36.6802     58.370   127.825
37.2137     58.583   126.977
37.7550     58.795   126.122
38.3041     59.006   125.259
38.8613     59.216   124.388
39.4265     59.424   123.509
40.0000     59.631   122.624
40.5818     59.837   121.731
41.1721     60.042   120.831
41.7710     60.246   119.923
42.3785     60.448   119.007
42.9949     60.649   118.084
43.6203     60.848   117.153
44.2548     61.046   116.214
44.8985     61.243   115.268
45.5515     61.438   114.312
46.2141     61.632   113.348
46.8863     61.824   112.373
47.5683     62.016   111.389
48.2602     62.206   110.395
48.9621     62.395   109.390
49.6743     62.583   108.374
50.3968     62.770   107.348
51.1299     62.955   106.311
51.8736     63.139   105.263
52.6281     63.321   104.204
53.3936     63.502   103.135
54.1702     63.682   102.056
54.9581     63.860   100.967
55.7575     64.036    99.868
56.5685     64.211    98.760
57.3914     64.384    97.643
58.2261     64.556    96.517
59.0730     64.726    95.385
59.9323     64.894    94.244
60.8040     65.060    93.097
61.6884     65.223    91.942
62.5857     65.385    90.779
63.4960     65.545    89.608
64.4196     65.701    88.426
65.3566     65.856    87.235
66.3073     66.008    86.031
67.2717     66.157    84.814
68.2502     66.303    83.585
69.2429     66.447    82.342
70.2501     66.588    81.083
71.2719     66.727    79.812
72.3086     66.864    78.527
73.3603     66.999    77.229
74.4274     67.132    75.920
75.5099     67.263    74.601
76.6083     67.393    73.272
77.7226     67.520    71.935
78.8531     67.646    70.592
80.0000     67.769    69.242
81.1636     67.889    67.885
82.3442     68.007    66.521
83.5419     68.122    65.150
84.7570     68.234    63.770
85.9899     68.343    62.382
87.2406     68.449    60.986
88.5096     68.551    59.580
89.7970     68.651    58.164
91.1031     68.748    56.738
92.4282     68.842    55.301
93.7726     68.934    53.851
95.1366     69.024    52.390
96.5204     69.113    50.922
97.9243     69.199    49.450
99.3486     69.283    47.979
100.794     69.364    46.508
102.260     69.441    45.036
103.747     69.513    43.556
105.256     69.582    42.063
106.787     69.648    40.557
108.340     69.713    39.038
109.916     69.776    37.512
111.515     69.837    35.986
113.137     69.895    34.460
114.783     69.950    32.935
116.452     70.002    31.406
118.146     70.049    29.867
119.865     70.094    28.319
121.608     70.137    26.762
123.377     70.178    25.200
125.171     70.217    23.638
126.992     70.253    22.078
128.839     70.287    20.521
130.713     70.318    18.967
132.615     70.345    17.414
134.543     70.370    15.864
136.500     70.393    14.319
138.486     70.413    12.783
140.500     70.430    11.255
142.544     70.444     9.736
144.617     70.456     8.224
146.721     70.467     6.720
148.855     70.475     5.223
151.020     70.483     3.736
153.217     70.489     2.259
155.445     70.495     0.788
157.706     70.499    -0.677
160.000     70.502    -2.138
162.327     70.504    -3.595
164.688     70.505    -5.049
167.084     70.505    -6.502
169.514     70.505    -7.954
171.980     70.504    -9.408
174.481     70.503   -10.865
177.019     70.501   -12.322
179.594     70.498   -13.784
182.206     70.494   -15.252
184.856     70.488   -16.726
187.545     70.482   -18.206
190.273     70.474   -19.692
193.041     70.464   -21.185
195.849     70.452   -22.685
198.697     70.439   -24.190
201.587     70.423   -25.700
204.520     70.406   -27.214
207.494     70.385   -28.729
210.512     70.363   -30.242
213.574     70.337   -31.755
216.681     70.310   -33.262
219.833     70.280   -34.764
223.030     70.248   -36.257
226.274     70.216   -37.740
229.565     70.182   -39.213
232.905     70.149   -40.674
236.292     70.116   -42.125
239.729     70.084   -43.567
243.216     70.053   -45.003
246.754     70.025   -46.435
250.343     70.000   -47.870
253.984     69.978   -49.312
257.678     69.960   -50.771
261.426     69.945   -52.254
265.229     69.935   -53.772
269.087     69.928   -55.332
273.001     69.923   -56.942
276.972     69.920   -58.610
281.000     69.917   -60.342
285.088     69.913   -62.141
289.234     69.904   -64.009
293.441     69.889   -65.945
297.709     69.866   -67.943
302.040     69.833   -69.995
306.433     69.786   -72.087
310.890     69.725   -74.204
315.412     69.647   -76.327
320.000     69.551   -78.434
324.655     69.439   -80.505
329.377     69.308   -82.515
334.168     69.161   -84.444
339.028     68.999   -86.272
343.959     68.826   -87.985
348.962     68.646   -89.567
354.038     68.460   -91.010
359.188     68.271   -92.306
364.412     68.083   -93.454
369.713     67.897   -94.458
375.090     67.718   -95.329
380.546     67.547   -96.082
386.081     67.389   -96.735
391.697     67.247   -97.307
397.394     67.121   -97.821
403.175     67.014   -98.298
409.039     66.927   -98.757
414.989     66.859   -99.219
421.025     66.810   -99.702
427.149     66.781  -100.220
433.362     66.770  -100.789
439.665     66.778  -101.417
446.060     66.803  -102.115
452.548     66.847  -102.894
459.131     66.909  -103.768
465.809     66.989  -104.753
472.584     67.089  -105.874
479.458     67.209  -107.158
486.432     67.348  -108.640
493.507     67.505  -110.362
500.686     67.677  -112.373
507.968     67.860  -114.722
515.357     68.045  -117.451
522.853     68.223  -120.581
530.458     68.381  -124.102
538.174     68.506  -127.963
546.002     68.585  -132.067
553.943     68.611  -136.283
562.001     68.578  -140.457
570.175     68.488  -144.441
578.469     68.349  -148.114
586.883     68.172  -151.397
595.419     67.972  -154.273
604.080     67.764  -156.772
612.866     67.561  -158.968
621.780     67.371  -160.963
630.824     67.200  -162.862
640.000     67.047  -164.754
649.309     66.909  -166.702
658.753     66.779  -168.733
668.335     66.652  -170.836
678.056     66.524  -172.974
687.919     66.396  -175.100
697.925     66.271  -177.172
708.077     66.156  -179.169
718.376     66.058   178.897
728.825     65.983   176.983
739.426     65.934   175.022
750.181     65.908   172.938
761.093     65.899   170.657
772.163     65.898   168.132
783.394     65.896   165.342
794.789     65.885   162.292
806.349     65.860   159.012
818.078     65.820   155.553
829.977     65.764   151.970
842.050     65.691   148.334
854.298     65.601   144.733
866.724     65.496   141.258
879.330     65.381   137.987
892.120     65.264   134.956
905.097     65.161   132.134
918.262     65.088   129.403
931.618     65.055   126.562
945.169     65.065   123.352
958.917     65.103   119.527
972.864     65.140   114.930
987.015     65.142   109.550
1001.37     65.079   103.534
1015.94     64.930    97.136
1030.71     64.691    90.653
1045.71     64.370    84.354
1060.92     63.978    78.427
1076.35     63.530    73.016
1092.00     63.032    68.168
1107.89     62.483    63.898
1124.00     61.890    60.255
1140.35     61.260    57.227
1156.94     60.592    54.876
1173.77     59.904    53.313
1190.84     59.223    52.562
1208.16     58.574    52.620
1225.73     58.004    53.286
1243.56     57.560    54.106
1261.65     57.256    54.527
1280.00     57.074    53.964
1298.62     56.953    51.999
1317.51     56.813    48.663
1336.67     56.582    44.347
1356.11     56.197    39.844
1375.84     55.652    36.349
1395.85     55.010    35.017
1416.15     54.442    36.768
1436.75     54.206    41.336
1457.65     54.459    46.891
1478.85     55.137    51.120
1500.36     55.991    52.948
1522.19     56.876    52.488
1544.33     57.721    49.983
1566.79     58.508    45.995
1589.58     59.279    40.862
1612.70     60.016    34.869
1636.16     60.712    28.305
1659.95     61.366    21.308
1684.10     61.955    13.943
1708.60     62.460     6.205
1733.45     62.879    -1.878
1758.66     63.201   -10.292
1784.24     63.413   -18.809
1810.19     63.538   -27.252
1836.52     63.600   -35.479
1863.24     63.637   -43.369
1890.34     63.701   -51.112
1917.83     63.829   -59.016
1945.73     64.024   -67.551
1974.03     64.230   -76.979
2002.74     64.381   -87.259
2031.87     64.416   -98.068
2061.43     64.313  -108.803
2091.41     64.097  -118.980
2121.83     63.820  -128.272
2152.69     63.532  -136.683
2184.01     63.287  -144.504
2215.77     63.112  -152.235
2248.00     63.007  -160.493
2280.70     62.937  -169.624
2313.87     62.865  -179.722
2347.53     62.749   169.474
2381.68     62.573   158.369
2416.32     62.332   147.401
2451.46     62.059   136.876
2487.12     61.782   126.767
2523.30     61.514   116.813
2560.00     61.234   106.752
2597.24     60.912    96.478
2635.01     60.540    86.318
2673.34     60.162    76.928
2712.23     59.872    68.660
2751.68     59.787    61.222
2791.70     59.954    53.562
2832.31     60.328    44.236
2873.50     60.801    32.167
2915.30     61.266    17.015
2957.70     61.677    -0.594
3000.72     62.021   -19.724
3044.37     62.305   -39.608
3088.65     62.514   -59.803
3133.58     62.626   -80.335
3179.16     62.629  -101.075
3225.40     62.531  -121.660
3272.31     62.367  -141.479
3319.91     62.199  -159.917
3368.20     62.067  -176.987
3417.19     61.994   166.738
3466.89     61.971   150.483
3517.32     61.983   133.537
3568.48     62.027   115.618
3620.39     62.093    96.766
3673.05     62.156    77.282
3726.47     62.205    57.554
3780.67     62.220    37.816
3835.67     62.195    18.544
3891.46     62.150    -0.148
3948.06     62.121   -18.399
4005.49     62.134   -36.543
4063.75     62.167   -55.362
4122.86     62.157   -75.188
4182.82     62.034   -95.903
4243.66     61.764  -117.052
4305.39     61.343  -137.929
4368.01     60.778  -157.901
4431.55     60.123  -176.367
4496.01     59.466   166.917
4561.40     58.893   151.783
4627.75     58.466   137.608
4695.06     58.236   123.639
4763.35     58.262   108.716
4832.64     58.500    91.624
4902.93     58.841    71.905
4974.24     59.170    49.024
5046.60     59.353    23.235
5120.00     59.290    -3.883
5194.47     58.987   -30.481
5270.03     58.548   -55.018
5346.68     58.118   -76.670
5424.45     57.862   -96.086
5503.35     57.845  -115.499
5583.40     57.979  -137.017
5664.61     58.094  -161.491
5747.01     58.032   171.322
5830.60     57.739   143.700
5915.41     57.251   117.278
6001.45     56.727    92.855
6088.74     56.314    70.231
6177.30     56.070    48.198
6267.15     56.021    25.964
6358.31     56.140     2.304
6450.80     56.338   -23.766
6544.62     56.481   -51.545
6639.82     56.578   -80.490
6736.40     56.615  -110.126
6834.38     56.579  -139.119
6933.79     56.574  -167.593
7034.64     56.613   163.140
7136.96     56.606   132.948
7240.77     56.553   101.821
7346.09     56.443    69.848
7452.94     56.302    38.262
7561.35     56.220     7.097
7671.33     56.193   -24.869
7782.91     56.139   -58.078
7896.12     56.021   -92.441
8010.97     55.836  -127.408
8127.49     55.616  -161.703
8245.71     55.478   164.950
8365.65     55.409   131.435
8487.33     55.388    97.170
8610.78     55.371    61.483
8736.03     55.320    24.501
8863.09     55.263   -13.131
8992.01     55.159   -52.577
9122.80     54.997   -96.213
9255.50     54.794  -149.472
9390.12     54.567   142.083
9526.70     54.377    56.768
9665.27     54.283   -45.674
9805.86     54.294  -153.832
9948.49     54.314   100.694
10093.2     54.280    21.357
10240.0     54.220   -36.642
10388.9     54.107   -86.051
10540.1     53.989  -121.657
10693.4     53.872  -160.652
10848.9     53.728   147.473
11006.7     53.527    98.150
11166.8     53.297    47.764
11329.2     53.031     0.300
11494.0     52.769   -46.661
11661.2     52.529   -94.146
11830.8     52.337  -142.402
12002.9     52.241   168.468
12177.5     52.216   118.554
12354.6     52.272    67.686
12534.3     52.386    15.607
12716.6     52.512   -38.006
12901.6     52.617   -93.490
13089.2     52.622  -150.718
13279.6     52.497   151.057
13472.8     52.265    92.943
13668.8     51.976    35.767
13867.6     51.696   -20.515
14069.3     51.425   -76.646
14273.9     51.171  -135.413
14481.5     50.894   159.399
14692.2     50.549    90.452
14905.9     50.181    15.568
15122.7     49.840   -46.236
15342.7     49.576  -100.729
15565.8     49.415  -157.552
15792.2     49.333   153.336
16021.9     49.288    96.089
16255.0     49.212    28.553
16491.4     49.050   -37.113
16731.3     48.796   -91.640
16974.7     48.466  -139.849
17221.6     48.130   159.942
17472.1     47.865    94.436
17726.2     47.701    15.489
17984.0     47.627   -81.066
18245.6     47.571  -175.371
18511.0     47.435    92.915
18780.2     47.173     6.510
19053.4     46.748   -77.532
19330.5     46.169  -161.212
19611.7     45.380   116.603
19897.0     44.544    36.853
20186.4     43.623   -46.001
20480.0     42.681  -131.496
20777.9     41.760   145.518
21080.1     40.818    68.359
21386.7     40.000    13.960
21697.8     39.114   -21.341
22013.4     38.376   -29.585
22333.6     38.010    -3.167
22658.4     37.176    40.991
22988.0     36.045    96.905
23322.4     34.471   150.169
23661.6     32.001   175.376
