Freq[Hz]     dBSPL  Phase[Deg]
5.00000    -25.508  -147.979
5.07273    -25.131  -147.606
5.14651    -24.870  -147.283
5.22137    -24.933  -147.102
5.29732    -24.995  -146.920
5.37437    -25.058  -146.739
5.45254    -25.120  -146.558
5.53185    -25.433  -145.102
5.61231    -26.011  -142.296
5.69394    -26.589  -139.491
5.77676    -27.167  -136.685
5.86079    -27.737  -133.742
5.94604    -27.879  -122.699
6.03252    -28.021  -111.657
6.12027    -28.163  -100.615
6.20929    -28.305   -89.572
6.29961    -27.327   -82.485
6.39124    -26.100   -76.275
6.48420    -24.873   -70.064
6.57851    -23.646   -63.854
6.67420    -22.803   -62.559
6.77128    -22.023   -62.061
6.86977    -21.242   -61.564
6.96969    -20.541   -61.139
7.07107    -20.445   -61.274
7.17392    -20.348   -61.409
7.27827    -20.252   -61.543
7.38413    -20.558   -59.451
7.49154    -21.174   -55.639
7.60050    -21.790   -51.826
7.71105    -22.281   -46.159
7.82321    -22.221   -32.345
7.93701    -22.161   -18.532
8.05245    -22.101    -4.718
8.16958    -20.592     3.118
8.28841    -19.028    10.731
8.40896    -17.465    18.344
8.53128    -16.410    21.162
8.65537    -15.420    23.361
8.78126    -14.431    25.560
8.90899    -13.974    29.951
9.03857    -13.552    34.486
9.17004    -13.066    39.568
9.30342    -12.069    49.016
9.43874    -11.072    58.463
9.57603     -9.685    66.180
9.71532     -7.701    71.252
9.85663     -5.717    76.324
10.0000     -3.906    76.598
10.1455     -2.142    75.537
10.2930     -0.518    73.725
10.4427      0.714    69.817
10.5946      1.946    65.910
10.7487      2.770    61.117
10.9051      3.512    56.148
11.0637      4.010    51.242
11.2246      4.249    46.404
11.3879      4.373    41.964
11.5535      4.077    38.972
11.7216      3.775    36.070
11.8921      3.119    38.485
12.0650      2.464    40.899
12.2405      2.573    49.662
12.4186      2.781    59.243
12.5992      4.152    65.183
12.7825      5.780    70.314
12.9684      7.390    69.124
13.1570      8.996    66.462
13.3484     10.161    60.384
13.5426     11.255    53.752
13.7395     11.835    45.269
13.9394     12.331    36.601
14.1421     12.346    27.066
14.3478     12.165    17.427
14.5565     11.563     7.568
14.7683     10.492    -1.921
14.9831      9.060   -11.124
15.2010      6.422   -16.872
15.4221      3.286   -16.743
15.6464     -1.129     6.604
15.8740     -0.967    33.468
16.1049      2.851    63.142
16.3392      5.853    60.407
16.5768      8.207    54.394
16.8179      9.664    45.379
17.0626     10.332    35.870
17.3107     10.641    26.763
17.5625     10.561    18.366
17.8180     10.023    12.562
18.0771      9.334     9.257
18.3401      8.559     8.785
18.6068      8.026    13.094
18.8775      8.061    19.511
19.1521      8.574    26.300
19.4306      9.541    32.362
19.7133     10.856    36.424
20.0000     12.320    38.721
20.2909     13.841    39.316
20.5860     15.338    38.217
20.8855     16.715    35.559
21.1893     17.820    31.741
21.4975     18.643    27.883
21.8102     19.213    24.798
22.1274     19.604    23.231
22.4492     19.961    23.644
22.7758     20.470    25.860
23.1071     21.277    28.760
23.4432     22.351    30.748
23.7841     23.494    30.961
24.1301     24.524    29.937
24.4811     25.395    28.494
24.8372     26.139    27.283
25.1984     26.833    26.586
25.5649     27.550    26.248
25.9368     28.316    25.869
26.3141     29.103    25.150
26.6968     29.864    24.091
27.0851     30.582    22.926
27.4791     31.275    21.887
27.8788     31.984    20.980
28.2843     32.732    19.986
28.6957     33.496    18.711
29.1131     34.243    17.162
29.5365     34.953    15.536
29.9661     35.635    14.062
30.4020     36.325    12.826
30.8442     37.055    11.692
31.2929     37.815    10.429
31.7480     38.577     8.970
32.2098     39.324     7.410
32.6783     40.055     5.911
33.1536     40.794     4.503
33.6359     41.554     3.072
34.1251     42.329     1.474
34.6215     43.097    -0.303
35.1250     43.854    -2.153
35.6359     44.608    -4.007
36.1543     45.376    -5.907
36.6802     46.158    -7.951
37.2137     46.940   -10.172
37.7550     47.718   -12.487
38.3041     48.501   -14.863
38.8613     49.294   -17.357
39.4265     50.091   -20.064
40.0000     50.872   -22.933
40.5818     51.637   -25.887
41.1721     52.401   -28.973
41.7710     53.151   -32.317
42.3785     53.846   -35.933
42.9949     54.470   -39.460
43.6203     55.067   -42.613
44.2548     55.712   -45.494
44.8985     56.418   -48.649
45.5515     57.127   -52.315
46.2141     57.791   -56.300
46.8863     58.418   -60.320
47.5683     59.035   -64.360
48.2602     59.641   -68.543
48.9621     60.219   -72.860
49.6743     60.760   -77.234
50.3968     61.268   -81.639
51.1299     61.738   -86.057
51.8736     62.169   -90.457
52.6281     62.566   -94.846
53.3936     62.930   -99.244
54.1702     63.258  -103.619
54.9581     63.562  -107.939
55.7575     63.846  -112.219
56.5685     64.112  -116.448
57.3914     64.362  -120.586
58.2261     64.597  -124.605
59.0730     64.815  -128.462
59.9323     65.014  -132.106
60.8040     65.205  -135.515
61.6884     65.391  -138.733
62.5857     65.573  -141.861
63.4960     65.742  -144.936
64.4196     65.898  -147.957
65.3566     66.045  -150.935
66.3073     66.187  -153.872
67.2717     66.328  -156.744
68.2502     66.469  -159.501
69.2429     66.620  -162.102
70.2501     66.793  -164.608
71.2719     66.980  -167.105
72.3086     67.166  -169.663
73.3603     67.337  -172.225
74.4274     67.512  -174.706
75.5099     67.693  -177.297
76.6083     67.853  -179.849
77.7226     68.034   177.860
78.8531     68.257   175.601
80.0000     68.501   173.305
81.1636     68.757   170.971
82.3442     69.012   168.554
83.5419     69.257   166.019
84.7570     69.483   163.394
85.9899     69.701   160.707
87.2406     69.920   158.008
88.5096     70.164   155.280
89.7970     70.427   152.368
91.1031     70.675   149.262
92.4282     70.882   146.130
93.7726     71.052   143.151
95.1366     71.203   140.365
96.5204     71.363   137.645
97.9243     71.531   134.869
99.3486     71.718   131.979
100.794     71.911   128.887
102.260     72.092   125.689
103.747     72.259   122.482
105.256     72.403   119.234
106.787     72.520   115.921
108.340     72.600   112.501
109.916     72.631   109.121
111.515     72.651   106.064
113.137     72.700   103.068
114.783     72.738   100.029
116.452     72.753    97.071
118.146     72.762    94.208
119.865     72.775    91.345
121.608     72.771    88.491
123.377     72.756    85.761
125.171     72.731    83.002
126.992     72.684    80.215
128.839     72.630    77.410
130.713     72.566    74.652
132.615     72.484    72.120
134.543     72.391    69.845
136.500     72.315    67.569
138.486     72.241    65.361
140.500     72.143    62.963
142.544     72.006    60.600
144.617     71.854    58.884
146.721     71.757    57.494
148.855     71.716    55.680
151.020     71.671    53.506
153.217     71.589    51.455
155.445     71.509    49.521
157.706     71.378    47.274
160.000     71.123    45.543
162.327     70.959    44.674
164.688     70.863    43.737
167.084     70.850    42.781
169.514     70.843    40.238
171.980     70.550    38.142
174.481     70.303    37.861
177.019     70.176    37.666
179.594     70.118    37.303
182.206     70.099    36.741
184.856     70.124    36.047
187.545     70.151    35.071
190.273     70.208    33.736
193.041     70.235    32.045
195.849     70.220    30.764
198.697     70.176    29.103
201.587     70.050    27.239
204.520     69.858    25.832
207.494     69.672    25.023
210.512     69.550    24.866
213.574     69.520    24.096
216.681     69.488    23.312
219.833     69.377    22.303
223.030     69.283    21.918
226.274     69.237    21.826
229.565     69.264    21.154
232.905     69.206    20.292
236.292     69.173    19.969
239.729     69.206    19.433
243.216     69.319    18.428
246.754     69.265    16.987
250.343     69.096    16.146
253.984     69.069    16.079
257.678     69.058    15.632
261.426     69.081    14.750
265.229     69.043    13.300
269.087     68.814    12.316
273.001     68.762    13.285
276.972     68.842    13.200
281.000     68.826    12.362
285.088     68.871    12.087
289.234     68.955    11.933
293.441     69.097    10.486
297.709     69.002     8.913
302.040     68.936     7.647
306.433     68.667     7.288
310.890     68.742     8.229
315.412     68.829     6.485
320.000     68.654     5.516
324.655     68.447     5.611
329.377     68.449     6.468
334.168     68.491     5.754
339.028     68.436     6.621
343.959     68.667     5.802
348.962     68.583     4.501
354.038     68.415     4.438
359.188     68.488     4.598
364.412     68.384     4.051
369.713     68.355     4.852
375.090     68.435     4.516
380.546     68.445     4.567
386.081     68.575     4.033
391.697     68.491     3.094
397.394     68.446     2.258
403.175     68.325     2.293
409.039     68.289     2.561
414.989     68.299     2.455
421.025     68.321     2.183
427.149     68.311     1.769
433.362     68.285     1.669
439.665     68.302     1.258
446.060     68.274     0.851
452.548     68.265     0.654
459.131     68.259     0.455
465.809     68.263     0.268
472.584     68.274     0.103
479.458     68.308    -0.095
486.432     68.340    -0.152
493.507     68.383    -0.360
500.686     68.438    -0.439
507.968     68.502    -0.589
515.357     68.564    -0.712
522.853     68.649    -0.945
530.458     68.740    -1.224
538.174     68.846    -1.466
546.002     68.949    -1.865
553.943     69.073    -2.306
562.001     69.189    -2.855
570.175     69.319    -3.550
578.469     69.445    -4.286
586.883     69.570    -5.229
595.419     69.689    -6.202
604.080     69.800    -7.323
612.866     69.904    -8.505
621.780     69.983    -9.774
630.824     70.060   -11.159
640.000     70.105   -12.553
649.309     70.133   -13.945
658.753     70.142   -15.308
668.335     70.123   -16.746
678.056     70.093   -18.034
687.919     70.042   -19.238
697.925     69.968   -20.260
708.077     69.897   -21.140
718.376     69.815   -21.817
728.825     69.739   -22.254
739.426     69.681   -22.521
750.181     69.649   -22.556
761.093     69.661   -22.489
772.163     69.707   -22.298
783.394     69.805   -22.156
794.789     69.950   -22.145
806.349     70.139   -22.321
818.078     70.359   -22.785
829.977     70.601   -23.590
842.050     70.842   -24.729
854.298     71.083   -26.242
866.724     71.297   -28.042
879.330     71.485   -30.117
892.120     71.631   -32.434
905.097     71.733   -34.896
918.262     71.785   -37.432
931.618     71.791   -39.957
945.169     71.749   -42.353
958.917     71.665   -44.635
972.864     71.557   -46.593
987.015     71.423   -48.262
1001.37     71.290   -49.628
1015.94     71.172   -50.652
1030.71     71.095   -51.434
1045.71     71.065   -52.106
1060.92     71.090   -52.828
1076.35     71.162   -53.744
1092.00     71.262   -54.995
1107.89     71.376   -56.614
1124.00     71.464   -58.616
1140.35     71.515   -60.964
1156.94     71.504   -63.519
1173.77     71.418   -66.134
1190.84     71.257   -68.571
1208.16     71.024   -70.623
1225.73     70.736   -72.079
1243.56     70.436   -72.731
1261.65     70.174   -72.436
1280.00     70.028   -71.450
1298.62     70.051   -69.989
1317.51     70.258   -68.719
1336.67     70.629   -68.132
1356.11     71.087   -68.555
1375.84     71.571   -70.074
1395.85     72.011   -72.567
1416.15     72.378   -75.782
1436.75     72.644   -79.410
1457.65     72.809   -83.237
1478.85     72.884   -87.030
1500.36     72.889   -90.580
1522.19     72.854   -93.811
1544.33     72.804   -96.712
1566.79     72.776   -99.361
1589.58     72.776  -101.909
1612.70     72.803  -104.555
1636.16     72.835  -107.386
1659.95     72.848  -110.494
1684.10     72.821  -113.734
1708.60     72.736  -116.977
1733.45     72.600  -119.948
1758.66     72.434  -122.563
1784.24     72.273  -124.669
1810.19     72.153  -126.350
1836.52     72.111  -127.872
1863.24     72.149  -129.490
1890.34     72.235  -131.479
1917.83     72.331  -133.977
1945.73     72.395  -136.895
1974.03     72.398  -140.029
2002.74     72.333  -143.110
2031.87     72.217  -145.861
2061.43     72.088  -148.131
2091.41     71.996  -149.968
2121.83     71.978  -151.621
2152.69     72.040  -153.481
2184.01     72.141  -155.894
2215.77     72.216  -158.918
2248.00     72.198  -162.314
2280.70     72.064  -165.581
2313.87     71.843  -168.165
2347.53     71.637  -169.806
2381.68     71.561  -170.731
2416.32     71.658  -171.920
2451.46     71.842  -174.218
2487.12     71.948  -177.770
2523.30     71.847   178.183
2560.00     71.520   174.833
2597.24     71.113   173.260
2635.01     70.869   173.408
2673.34     70.942   173.662
2712.23     71.200   172.320
2751.68     71.361   169.164
2791.70     71.267   165.539
2832.31     70.961   163.072
2873.50     70.681   162.381
2915.30     70.652   162.454
2957.70     70.826   161.480
3000.72     70.958   158.992
3044.37     70.888   155.995
3088.65     70.644   153.815
3133.58     70.403   152.973
3179.16     70.317   152.865
3225.40     70.398   152.370
3272.31     70.518   150.891
3319.91     70.542   148.624
3368.20     70.399   146.476
3417.19     70.180   145.497
3466.89     70.103   145.585
3517.32     70.248   145.053
3568.48     70.350   142.861
3620.39     70.164   140.496
3673.05     69.858   140.219
3726.47     69.855   141.442
3780.67     70.152   140.996
3835.67     70.275   138.490
3891.46     70.097   136.662
3948.06     69.983   136.647
4005.49     70.124   136.395
4063.75     70.245   134.681
4122.86     70.205   132.828
4182.82     70.123   131.484
4243.66     70.027   130.341
4305.39     69.942   129.647
4368.01     69.961   128.722
4431.55     69.880   126.750
4496.01     69.554   125.860
4561.40     69.443   126.831
4627.75     69.575   125.809
4695.06     69.264   123.605
4763.35     68.791   125.224
4832.64     68.929   127.539
4902.93     69.041   126.719
4974.24     68.870   127.153
5046.60     68.982   128.168
5120.00     68.989   127.762
5194.47     68.970   129.316
5270.03     69.356   129.640
5346.68     69.436   127.863
5424.45     69.487   128.177
5503.35     69.826   126.229
5583.40     69.595   122.650
5664.61     69.183   122.456
5747.01     69.022   122.468
5830.60     68.760   122.566
5915.41     68.541   123.148
6001.45     68.296   124.676
6088.74     68.376   125.920
6177.30     68.108   125.523
6267.15     67.982   128.894
6358.31     68.192   128.144
6450.80     67.628   129.160
6544.62     67.761   132.452
6639.82     67.538   132.480
6736.40     67.373   136.336
6834.38     67.310   138.518
6933.79     67.314   143.467
7034.64     67.628   147.125
7136.96     68.205   150.728
7240.77     68.654   150.830
7346.09     69.060   153.142
7452.94     69.558   152.444
7561.35     69.903   153.202
7671.33     70.332   151.380
7782.91     70.462   150.067
7896.12     70.418   148.255
8010.97     70.289   148.128
8127.49     69.940   148.607
8245.71     70.030   151.343
8365.65     69.885   152.577
8487.33     70.209   155.467
8610.78     70.218   155.977
8736.03     70.528   158.695
8863.09     70.714   158.143
8992.01     70.811   160.665
9122.80     71.072   160.030
9255.50     71.175   162.981
9390.12     71.483   161.710
9526.70     71.611   163.714
9665.27     71.773   162.628
9805.86     71.798   164.354
9948.49     72.021   164.105
10093.2     72.077   165.916
10240.0     72.269   164.741
10388.9     72.413   166.264
10540.1     72.350   165.180
10693.4     72.398   166.033
10848.9     72.258   166.986
11006.7     72.422   169.187
11166.8     72.612   169.842
11329.2     72.909   169.269
11494.0     72.778   168.439
11661.2     72.706   167.746
11830.8     72.513   169.377
12002.9     72.241   169.595
12177.5     72.342   170.864
12354.6     72.224   172.544
12534.3     71.973   171.777
12716.6     71.725   172.802
12901.6     71.265   176.537
13089.2     70.948   179.992
13279.6     70.911  -175.864
13472.8     71.091  -170.140
13668.8     71.461  -165.575
13867.6     72.014  -163.839
14069.3     72.544  -163.334
14273.9     72.906  -162.883
14481.5     73.012  -162.966
14692.2     73.114  -162.652
14905.9     73.456  -162.916
15122.7     73.624  -164.393
15342.7     73.496  -165.532
15565.8     73.340  -166.592
15792.2     73.085  -167.756
16021.9     72.788  -167.696
16255.0     72.524  -167.338
16491.4     72.168  -166.769
16731.3     71.891  -166.272
16974.7     71.517  -166.809
17221.6     70.995  -166.392
17472.1     70.549  -165.430
17726.2     70.012  -164.670
17984.0     69.437  -163.189
18245.6     68.806  -161.647
18511.0     68.134  -159.091
18780.2     67.540  -156.475
19053.4     66.840  -153.329
19330.5     66.269  -149.090
19611.7     65.845  -145.529
19897.0     65.327  -142.408
20186.4     64.719  -139.066
20480.0     64.002  -135.133
20777.9     63.187  -128.940
21080.1     63.035  -120.421
21386.7     63.103  -116.267
21697.8     63.025  -113.309
22013.4     62.762  -110.892
22333.6     62.423  -108.711
22658.4     61.931  -106.464
22988.0     61.358  -104.048
23322.4     60.691  -101.244
23661.6     59.982   -98.081
24005.8     59.203   -94.167
24355.0     58.442   -90.204
24709.2     57.667   -85.635
25068.6     56.808   -80.590
25433.2     56.085   -74.934
25803.2     55.360   -69.484
26178.5     54.715   -64.053
26559.3     54.091   -59.058
26945.6     53.318   -54.834
27337.5     52.541   -50.540
27735.2     51.600   -46.347
28138.6     50.412   -42.585
28547.9     48.971   -36.641
28963.1     47.741   -27.924
29384.4     46.752   -20.452
29811.8     45.795   -14.369
30245.4     44.301    -9.548
30685.3     42.651    -3.002
31131.7     40.612     2.508
31584.5     37.975    12.651
32043.9     35.246    23.964
32510.0     32.272    39.363
32982.8     28.522    43.002
33462.6     20.268   115.885
33949.3     31.582  -122.704
34443.1     37.896  -133.571
34944.1     41.562  -140.006
35452.4     43.551  -147.675
35968.0     44.143  -151.622
36491.2     44.876  -152.257
37022.0     45.151  -154.218
37560.5     44.875  -154.382
38106.8     44.758  -152.505
38661.1     44.599  -156.387
39223.4     42.899  -159.040
39793.9     41.027  -153.771
