Freq[Hz]     dBSPL  Phase[Deg]
5.00000    -23.659  -131.116
5.07273    -23.282  -130.503
5.14651    -23.020  -129.934
5.22137    -23.082  -129.491
5.29732    -23.143  -129.048
5.37437    -23.205  -128.605
5.45254    -23.266  -128.163
5.53185    -23.579  -126.433
5.61231    -24.156  -123.343
5.69394    -24.733  -120.252
5.77676    -25.310  -117.162
5.86079    -25.880  -113.934
5.94604    -26.022  -102.583
6.03252    -26.164   -91.233
6.12027    -26.306   -79.882
6.20929    -26.448   -68.532
6.29961    -25.470   -61.117
6.39124    -24.243   -54.575
6.48420    -23.017   -48.034
6.57851    -21.790   -41.492
6.67420    -20.949   -39.845
6.77128    -20.170   -38.993
6.86977    -19.391   -38.142
6.96969    -18.692   -37.361
7.07107    -18.599   -37.120
7.17392    -18.505   -36.880
7.27827    -18.412   -36.639
7.38413    -18.721   -34.161
7.49154    -19.342   -29.954
7.60050    -19.963   -25.747
7.71105    -20.459   -19.682
7.82321    -20.406    -5.458
7.93701    -20.352     8.766
8.05245    -20.299    22.990
8.16958    -18.798    31.250
8.28841    -17.242    39.287
8.40896    -15.687    47.324
8.53128    -14.642    50.575
8.65537    -13.663    53.208
8.78126    -12.684    55.841
8.90899    -12.239    60.672
9.03857    -11.829    65.648
9.17004    -11.355    71.172
9.30342    -10.372    81.064
9.43874     -9.389    90.956
9.57603     -8.016    99.117
9.71532     -6.047   104.634
9.85663     -4.077   110.151
10.0000     -2.280   110.870
10.1455     -0.532   110.253
10.2930      1.077   108.884
10.4427      2.294   105.417
10.5946      3.511   101.950
10.7487      4.321    97.594
10.9051      5.049    93.061
11.0637      5.533    88.590
11.2246      5.759    84.185
11.3879      5.870    80.176
11.5535      5.563    77.613
11.7216      5.251    75.141
11.8921      4.588    77.986
12.0650      3.925    80.830
12.2405      4.030    90.025
12.4186      4.235   100.040
12.5992      5.605   106.420
12.7825      7.234   111.993
12.9684      8.848   111.259
13.1570     10.459   109.055
13.3484     11.634   103.456
13.5426     12.739    97.306
13.7395     13.333    89.335
13.9394     13.845    81.185
14.1421     13.880    72.203
14.3478     13.720    63.132
14.5565     13.141    53.873
14.7683     12.096    45.014
14.9831     10.689    36.465
15.2010      8.078    31.420
15.4221      4.970    32.270
15.6464      0.582    56.386
15.8740      0.770    84.051
16.1049      4.613   114.551
16.3392      7.637   112.694
16.5768     10.011   107.581
16.8179     11.486    99.492
17.0626     12.165    90.945
17.3107     12.485    82.816
17.5625     12.411    75.414
17.8180     11.872    70.626
18.0771     11.180    68.343
18.3401     10.399    68.899
18.6068      9.854    74.237
18.8775      9.875    81.680
19.1521     10.370    89.490
19.4306     11.318    96.565
19.7133     12.612   101.628
20.0000     14.054   104.912
20.2909     15.552   106.484
20.5860     17.027   106.350
20.8855     18.383   104.649
21.1893     19.470   101.781
21.4975     20.278    98.870
21.8102     20.835    96.737
22.1274     21.218    96.129
22.4492     21.570    97.519
22.7758     22.077   100.732
23.1071     22.887   104.658
23.4432     23.965   107.707
23.7841     25.114   109.025
24.1301     26.151   109.152
24.4811     27.029   108.905
24.8372     27.777   108.939
25.1984     28.472   109.530
25.5649     29.187   110.521
25.9368     29.943   111.503
26.3141     30.714   112.168
26.6968     31.452   112.506
27.0851     32.141   112.737
27.4791     32.798   113.081
27.8788     33.466   113.531
28.2843     34.168   113.860
28.6957     34.886   113.867
29.1131     35.587   113.555
29.5365     36.255   113.124
29.9661     36.901   112.808
30.4020     37.562   112.705
30.8442     38.274   112.693
31.2929     39.028   112.562
31.7480     39.796   112.267
32.2098     40.559   111.920
32.6783     41.315   111.716
33.1536     42.086   111.690
33.6359     42.881   111.737
34.1251     43.690   111.725
34.6215     44.489   111.634
35.1250     45.269   111.552
35.6359     46.036   111.541
36.1543     46.806   111.529
36.6802     47.579   111.394
37.2137     48.341   111.080
37.7550     49.090   110.652
38.3041     49.838   110.124
38.8613     50.596   109.442
39.4265     51.359   108.509
40.0000     52.110   107.393
40.5818     52.854   106.188
41.1721     53.603   104.872
41.7710     54.346   103.337
42.3785     55.038   101.595
42.9949     55.661   100.009
43.6203     56.255    98.864
44.2548     56.892    98.050
44.8985     57.584    97.002
45.5515     58.271    95.457
46.2141     58.910    93.590
46.8863     59.509    91.669
47.5683     60.099    89.706
48.2602     60.684    87.588
48.9621     61.249    85.348
49.6743     61.785    83.091
50.3968     62.296    80.872
51.1299     62.771    78.725
51.8736     63.205    76.685
52.6281     63.600    74.730
53.3936     63.952    72.810
54.1702     64.261    70.920
54.9581     64.538    69.055
55.7575     64.798    67.180
56.5685     65.051    65.318
57.3914     65.302    63.549
58.2261     65.558    61.964
59.0730     65.813    60.685
59.9323     66.058    59.809
60.8040     66.289    59.378
61.6884     66.498    59.333
62.5857     66.675    59.495
63.4960     66.807    59.739
64.4196     66.898    59.967
65.3566     66.965    60.085
66.3073     67.026    60.071
67.2717     67.100    59.973
68.2502     67.204    59.934
69.2429     67.347    60.101
70.2501     67.535    60.514
71.2719     67.745    61.134
72.3086     67.952    61.877
73.3603     68.127    62.746
74.4274     68.293    63.758
75.5099     68.456    64.671
76.6083     68.595    65.625
77.7226     68.755    66.862
78.8531     68.960    68.184
80.0000     69.183    69.535
81.1636     69.411    70.896
82.3442     69.634    72.186
83.5419     69.846    73.338
84.7570     70.048    74.385
85.9899     70.254    75.407
87.2406     70.474    76.522
88.5096     70.724    77.759
89.7970     70.986    78.956
91.1031     71.219    80.043
92.4282     71.397    81.111
93.7726     71.536    82.295
95.1366     71.667    83.654
96.5204     71.820    85.132
97.9243     71.993    86.677
99.3486     72.185    88.256
100.794     72.376    89.747
102.260     72.547    91.185
103.747     72.701    92.636
105.256     72.841    94.097
106.787     72.960    95.605
108.340     73.038    97.148
109.916     73.056    98.832
111.515     73.051   100.859
113.137     73.075   102.927
114.783     73.100   104.984
116.452     73.112   107.246
118.146     73.115   109.762
119.865     73.107   112.347
121.608     73.077   114.903
123.377     73.053   117.556
125.171     73.045   120.319
126.992     73.024   123.336
128.839     72.971   126.564
130.713     72.879   129.861
132.615     72.765   133.285
134.543     72.663   137.098
136.500     72.591   141.143
138.486     72.513   144.758
140.500     72.400   148.718
142.544     72.256   153.204
144.617     72.114   157.817
146.721     72.022   162.882
148.855     71.966   168.125
151.020     71.897   172.877
153.217     71.805   177.672
155.445     71.730  -177.356
157.706     71.595  -172.634
160.000     71.331  -166.859
162.327     71.163  -160.275
164.688     71.072  -154.301
167.084     71.063  -147.722
169.514     71.057  -142.159
171.980     70.771  -136.127
174.481     70.523  -128.795
177.019     70.377  -121.418
179.594     70.298  -113.809
182.206     70.293  -105.908
184.856     70.353   -97.920
187.545     70.388   -90.626
190.273     70.425   -83.229
193.041     70.444   -76.381
195.849     70.446   -69.084
198.697     70.418   -61.449
201.587     70.288   -54.057
204.520     70.101   -46.336
207.494     69.939   -37.966
210.512     69.836   -28.249
213.574     69.811   -19.179
216.681     69.787   -10.733
219.833     69.677    -1.925
223.030     69.579     7.939
226.274     69.557    18.027
229.565     69.617    27.688
232.905     69.579    37.195
236.292     69.568    47.206
239.729     69.622    57.659
243.216     69.731    67.618
246.754     69.669    76.933
250.343     69.520    87.329
253.984     69.527    98.619
257.678     69.537   109.580
261.426     69.577   120.624
265.229     69.562   131.075
269.087     69.347   142.078
273.001     69.289   154.837
276.972     69.407   166.462
281.000     69.414   178.186
285.088     69.459  -169.176
289.234     69.553  -156.408
293.441     69.704  -145.110
297.709     69.657  -133.728
302.040     69.577  -121.885
306.433     69.290  -108.922
310.890     69.370   -94.038
315.412     69.438   -81.792
320.000     69.250   -68.950
324.655     69.033   -54.874
329.377     69.005   -40.183
334.168     69.036   -25.826
339.028     68.933    -9.890
343.959     69.119     4.324
348.962     68.983    18.029
354.038     68.759    33.047
359.188     68.763    48.832
364.412     68.573    64.466
369.713     68.475    81.417
375.090     68.465    97.421
380.546     68.376   114.271
386.081     68.412   130.622
391.697     68.223   147.228
397.394     68.062   164.541
403.175     67.825  -177.844
409.039     67.674  -159.258
414.989     67.552  -140.572
421.025     67.444  -121.884
427.149     67.310  -103.506
433.362     67.187   -84.663
439.665     67.094   -64.727
446.060     66.930   -44.837
452.548     66.800   -24.965
459.131     66.702    -4.211
465.809     66.589    16.989
472.584     66.515    38.246
479.458     66.444    59.712
486.432     66.376    81.573
493.507     66.313   103.953
500.686     66.297   127.083
507.968     66.255   150.105
515.357     66.240   173.199
522.853     66.211  -163.231
530.458     66.204  -139.213
538.174     66.211  -115.124
546.002     66.215   -91.128
553.943     66.212   -66.626
562.001     66.237   -41.604
570.175     66.238   -16.064
578.469     66.256     9.845
586.883     66.283    35.891
595.419     66.283    61.682
604.080     66.316    88.152
612.866     66.317   115.049
621.780     66.316   142.456
630.824     66.324   170.339
640.000     66.319  -161.787
649.309     66.315  -133.937
658.753     66.298  -105.558
668.335     66.255   -76.130
678.056     66.241   -46.721
687.919     66.194   -16.638
697.925     66.130    13.736
708.077     66.079    44.344
718.376     66.004    75.273
728.825     65.926   106.895
739.426     65.836   139.007
750.181     65.769   171.606
761.093     65.650  -155.004
772.163     65.546  -121.665
783.394     65.406   -87.905
794.789     65.285   -52.915
806.349     65.137   -18.001
818.078     64.985    17.684
829.977     64.806    53.611
842.050     64.631    90.335
854.298     64.453   127.576
866.724     64.236   164.743
879.330     64.035  -156.806
892.120     63.785  -117.740
905.097     63.536   -78.176
918.262     63.256   -37.929
931.618     62.963     2.875
945.169     62.642    44.493
958.917     62.291    86.627
972.864     61.936   129.532
987.015     61.549   173.266
1001.37     61.129  -141.664
1015.94     60.697   -95.834
1030.71     60.275   -49.517
1045.71     59.821    -1.629
1060.92     59.361    47.790
1076.35     58.982    97.431
1092.00     58.635   148.395
1107.89     58.355  -158.957
1124.00     58.172  -105.663
1140.35     58.066   -51.779
1156.94     58.105     3.382
1173.77     58.236    58.639
1190.84     58.506   113.823
1208.16     58.799   169.214
1225.73     59.136  -134.884
1243.56     59.497   -78.752
1261.65     59.850   -22.539
1280.00     60.174    33.479
1298.62     60.478    89.614
1317.51     60.699   146.454
1336.67     60.897  -156.229
1356.11     60.986   -98.422
1375.84     61.023   -40.053
1395.85     60.987    19.222
1416.15     60.862    78.866
1436.75     60.628   139.077
1457.65     60.287  -159.931
1478.85     59.850   -97.848
1500.36     59.290   -35.051
1522.19     58.605    28.681
1544.33     57.779    93.844
1566.79     56.815   160.383
1589.58     55.630  -131.757
1612.70     54.275   -62.696
1636.16     52.667     7.500
1659.95     50.775    79.380
1684.10     48.411   153.909
1708.60     45.448  -129.635
1733.45     40.981   -48.119
1758.66     33.173    56.072
1784.24     33.073  -133.035
1810.19     40.487   -24.671
1836.52     44.624    60.377
1863.24     47.352   143.539
1890.34     49.288  -133.172
1917.83     50.600   -49.488
1945.73     51.633    35.499
1974.03     52.264   122.822
2002.74     52.677  -148.606
2031.87     52.991   -56.704
2061.43     53.212    37.442
2091.41     53.575   134.693
2121.83     54.076  -126.114
2152.69     54.798   -26.852
2184.01     55.626    72.947
2215.77     56.449   172.846
2248.00     57.128   -87.064
2280.70     57.653    13.295
2313.87     57.963   115.368
2347.53     58.127  -140.581
2381.68     58.156   -34.525
2416.32     58.118    74.059
2451.46     58.152  -174.651
2487.12     58.254   -61.139
2523.30     58.418    53.865
2560.00     58.621   170.057
2597.24     58.758   -73.137
2635.01     58.795    45.381
2673.34     58.712   166.001
2712.23     58.558   -70.697
2751.68     58.431    55.879
2791.70     58.455  -175.065
2832.31     58.631   -44.400
2873.50     58.918    87.058
2915.30     59.147  -140.845
2957.70     59.263    -7.322
3000.72     59.165   128.007
3044.37     58.879   -94.120
3088.65     58.476    47.720
3133.58     58.185  -166.991
3179.16     58.115   -18.125
3225.40     58.361   132.735
3272.31     58.778   -76.194
3319.91     59.168    75.587
3368.20     59.408  -131.482
3417.19     59.434    22.964
3466.89     59.285  -179.685
3517.32     59.038   -18.094
3568.48     58.820   146.626
3620.39     58.780   -45.552
3673.05     58.978   124.965
3726.47     59.254   -63.526
3780.67     59.498   109.122
3835.67     59.563   -76.445
3891.46     59.481   101.118
3948.06     59.353   -78.250
4005.49     59.290   105.215
4063.75     59.279   -68.299
4122.86     59.219   119.804
4182.82     59.000   -49.941
4243.66     58.611   144.412
4305.39     58.155   -17.860
4368.01     57.700  -176.333
4431.55     57.274    29.266
4496.01     56.989  -121.467
4561.40     56.951    91.243
4627.75     57.099   -54.531
4695.06     57.179   161.562
4763.35     57.000    20.444
4832.64     56.706  -116.352
4902.93     56.627   111.390
4974.24     56.728   -18.546
5046.60     56.777  -147.308
5120.00     56.522    86.734
5194.47     56.038   -35.087
5270.03     55.388  -152.481
5346.68     54.741    95.201
5424.45     54.206   -11.862
5503.35     53.858  -115.435
5583.40     53.598   144.135
5664.61     53.281    47.882
5747.01     52.967   -44.844
5830.60     52.720  -134.233
5915.41     52.561   140.220
6001.45     52.282    57.214
6088.74     51.671   -22.296
6177.30     50.871   -96.039
6267.15     49.980  -164.819
6358.31     48.759   132.232
6450.80     47.463    79.152
6544.62     47.294    34.250
6639.82     47.623   -11.918
6736.40     47.426   -53.594
6834.38     47.643   -84.963
6933.79     49.495  -115.544
7034.64     51.124  -152.611
7136.96     51.595   170.338
7240.77     51.190   142.499
7346.09     50.842   123.674
7452.94     50.583   109.399
7561.35     50.412   102.331
7671.33     50.585    99.668
7782.91     50.461   100.531
7896.12     50.357   108.739
8010.97     50.571   121.677
8127.49     50.612   137.128
8245.71     50.272   157.758
8365.65     49.692  -174.996
8487.33     49.260  -141.911
8610.78     48.585  -104.772
8736.03     47.754   -61.234
8863.09     46.796   -11.613
8992.01     45.657    44.852
9122.80     44.362   109.058
9255.50     43.032  -175.169
9390.12     43.398   -84.777
9526.70     44.943    -2.520
9665.27     45.062    79.127
9805.86     44.811   172.125
9948.49     44.577   -92.136
10093.2     43.388     6.233
10240.0     41.243   109.858
10388.9     38.263  -149.327
10540.1     33.054   -63.199
10693.4     31.670    23.851
10848.9     36.511   133.251
11006.7     39.299   -98.688
11166.8     40.963    46.132
11329.2     42.318  -161.123
11494.0     42.227    -2.164
11661.2     41.094   173.672
11830.8     39.267     5.594
12002.9     39.776  -132.737
12177.5     43.444    76.497
12354.6     44.990   -77.288
12534.3     45.995   139.621
12716.6     47.116     3.916
12901.6     47.119  -127.485
13089.2     46.265   115.846
13279.6     45.791    10.318
13472.8     44.353   -84.508
13668.8     44.107  -164.758
13867.6     44.143   117.390
14069.3     43.703    47.224
14273.9     43.255   -11.881
14481.5     42.938   -64.117
14692.2     41.775  -102.860
14905.9     40.902  -128.408
15122.7     40.064  -144.224
15342.7     38.621  -149.495
15565.8     37.116  -143.931
15792.2     36.665  -128.495
16021.9     35.130  -114.360
16255.0     32.545   -73.913
16491.4     31.328   -11.289
16731.3     31.011    42.097
16974.7     28.891   113.671
17221.6     23.417  -142.928
17472.1     28.265    -9.317
17726.2     31.816    87.409
17984.0     32.246  -175.867
18245.6     31.443   -62.267
18511.0     29.070    54.703
18780.2     23.283   106.110
19053.4     16.309   -34.025
19330.5     14.118   -65.859
19611.7     17.993   -80.424
19897.0     20.272    92.143
20186.4     21.636    54.010
20480.0     21.652    10.625
20777.9     21.569    46.571
21080.1     21.761    59.811
21386.7     17.942   -73.327
21697.8     19.573   -56.309
22013.4     17.916    25.455
22333.6     16.937  -174.925
22658.4     18.174   105.483
22988.0     16.856   -66.139
23322.4     18.241   120.126
23661.6     18.168   104.229
24005.8     20.235  -170.267
24355.0     20.695   160.158
24709.2     23.170   139.145
25068.6     23.737  -175.582
25433.2     21.656   -85.867
25803.2     20.202  -136.735
26178.5     19.844   -23.157
26559.3     20.055   -96.775
26945.6     20.622   -31.784
27337.5     21.462   133.855
27735.2     22.832   169.254
28138.6     23.059   167.054
28547.9     21.844   -82.054
28963.1     21.935    46.773
29384.4     23.248   -52.053
29811.8     20.648   -44.126
30245.4     21.685    96.496
30685.3     20.936   163.433
31131.7     19.853     3.670
31584.5     19.187  -148.593
32043.9     19.631    -0.698
32510.0     17.667   -10.943
32982.8     17.413  -152.443
33462.6     18.129   -90.746
33949.3     18.477    10.940
34443.1     18.603   -51.507
34944.1     18.119   -24.044
35452.4     17.888   156.020
35968.0     18.648   155.053
36491.2     19.723  -148.974
37022.0     18.308  -168.977
37560.5     16.404  -113.395
38106.8     20.184    41.888
38661.1     18.699  -111.968
39223.4     17.831    78.688
39793.9     18.658   139.562
