Freq[Hz]     dBSPL  Phase[Deg]
5.00000    -24.122  -130.036
5.07273    -23.748  -129.424
5.14651    -23.490  -128.859
5.22137    -23.555  -128.423
5.29732    -23.620  -127.987
5.37437    -23.685  -127.551
5.45254    -23.751  -127.115
5.53185    -24.066  -125.396
5.61231    -24.647  -122.319
5.69394    -25.228  -119.241
5.77676    -25.809  -116.164
5.86079    -26.382  -112.950
5.94604    -26.527  -101.618
6.03252    -26.673   -90.288
6.12027    -26.818   -78.957
6.20929    -26.963   -67.626
6.29961    -25.987   -60.236
6.39124    -24.763   -53.720
6.48420    -23.539   -47.204
6.57851    -22.315   -40.688
6.67420    -21.475   -39.072
6.77128    -20.698   -38.252
6.86977    -19.920   -37.432
6.96969    -19.222   -36.683
7.07107    -19.129   -36.478
7.17392    -19.036   -36.273
7.27827    -18.943   -36.069
7.38413    -19.253   -33.628
7.49154    -19.872   -29.461
7.60050    -20.492   -25.293
7.71105    -20.987   -19.268
7.82321    -20.931    -5.084
7.93701    -20.875     9.100
8.05245    -20.819    23.283
8.16958    -19.314    31.503
8.28841    -17.755    39.500
8.40896    -16.195    47.497
8.53128    -15.144    50.710
8.65537    -14.159    53.305
8.78126    -13.174    55.901
8.90899    -12.721    60.699
9.03857    -12.304    65.642
9.17004    -11.822    71.134
9.30342    -10.830    81.000
9.43874     -9.837    90.867
9.57603     -8.454    99.006
9.71532     -6.473   104.507
9.85663     -4.493   110.007
10.0000     -2.684   110.719
10.1455     -0.923   110.096
10.2930      0.699   108.725
10.4427      1.929   105.267
10.5946      3.160   101.808
10.7487      3.984    97.474
10.9051      4.726    92.965
11.0637      5.225    88.526
11.2246      5.467    84.161
11.3879      5.593    80.197
11.5535      5.302    77.693
11.7216      5.004    75.281
11.8921      4.356    78.203
12.0650      3.708    81.126
12.2405      3.827    90.417
12.4186      4.045   100.529
12.5992      5.429   107.022
12.7825      7.071   112.712
12.9684      8.696   112.107
13.1570     10.317   110.037
13.3484     11.500   104.584
13.5426     12.613    98.582
13.7395     13.212    90.772
13.9394     13.729    82.783
14.1421     13.766    73.969
14.3478     13.607    65.069
14.5565     13.027    55.982
14.7683     11.978    47.296
14.9831     10.567    38.920
15.2010      7.948    34.045
15.4221      4.831    35.063
15.6464      0.431    59.340
15.8740      0.606    87.161
16.1049      4.434   117.812
16.3392      7.442   116.095
16.5768      9.800   111.114
16.8179     11.257   103.151
17.0626     11.917    94.716
17.3107     12.216    86.692
17.5625     12.121    79.388
17.8180     11.561    74.682
18.0771     10.847    72.476
18.3401     10.044    73.100
18.6068      9.477    78.495
18.8775      9.475    85.987
19.1521      9.947    93.838
19.4306     10.872   100.948
19.7133     12.143   106.035
20.0000     13.561   109.335
20.2909     15.036   110.915
20.5860     16.487   110.780
20.8855     17.818   109.067
21.1893     18.881   106.175
21.4975     19.664   103.226
21.8102     20.197   101.040
22.1274     20.555   100.364
22.4492     20.883   101.668
22.7758     21.367   104.776
23.1071     22.155   108.576
23.4432     23.214   111.479
23.7841     24.346   112.629
24.1301     25.370   112.568
24.4811     26.238   112.119
24.8372     26.982   111.936
25.1984     27.678   112.304
25.5649     28.399   113.069
25.9368     29.169   113.831
26.3141     29.958   114.288
26.6968     30.723   114.439
27.0851     31.442   114.513
27.4791     32.136   114.740
27.8788     32.844   115.121
28.2843     33.588   115.434
28.6957     34.349   115.482
29.1131     35.093   115.270
29.5365     35.799   114.995
29.9661     36.480   114.889
30.4020     37.169   115.039
30.8442     37.899   115.316
31.2929     38.661   115.491
31.7480     39.427   115.503
32.2098     40.179   115.448
32.6783     40.915   115.499
33.1536     41.658   115.683
33.6359     42.422   115.884
34.1251     43.198   115.961
34.6215     43.963   115.895
35.1250     44.714   115.784
35.6359     45.458   115.695
36.1543     46.213   115.576
36.6802     46.977   115.321
37.2137     47.740   114.895
37.7550     48.498   114.378
38.3041     49.260   113.802
38.8613     50.035   113.116
39.4265     50.814   112.231
40.0000     51.580   111.203
40.5818     52.333   110.119
41.1721     53.085   108.938
41.7710     53.826   107.536
42.3785     54.509   105.903
42.9949     55.121   104.397
43.6203     55.704   103.297
44.2548     56.332   102.497
44.8985     57.019   101.442
45.5515     57.708    99.888
46.2141     58.352    98.026
46.8863     58.959    96.140
47.5683     59.559    94.249
48.2602     60.150    92.239
48.9621     60.717    90.127
49.6743     61.250    87.997
50.3968     61.751    85.883
51.1299     62.214    83.804
51.8736     62.639    81.790
52.6281     63.029    79.828
53.3936     63.385    77.893
54.1702     63.704    76.016
54.9581     64.001    74.226
55.7575     64.279    72.515
56.5685     64.543    70.902
57.3914     64.790    69.442
58.2261     65.024    68.170
59.0730     65.238    67.140
59.9323     65.427    66.394
60.8040     65.600    65.938
61.6884     65.758    65.704
62.5857     65.903    65.557
63.4960     66.028    65.430
64.4196     66.139    65.306
65.3566     66.250    65.175
66.3073     66.368    65.067
67.2717     66.503    65.056
68.2502     66.655    65.258
69.2429     66.829    65.766
70.2501     67.025    66.555
71.2719     67.225    67.524
72.3086     67.405    68.546
73.3603     67.545    69.598
74.4274     67.671    70.678
75.5099     67.797    71.538
76.6083     67.911    72.331
77.7226     68.065    73.339
78.8531     68.288    74.432
80.0000     68.551    75.636
81.1636     68.832    77.003
82.3442     69.105    78.474
83.5419     69.352    79.948
84.7570     69.563    81.367
85.9899     69.757    82.705
87.2406     69.954    84.010
88.5096     70.184    85.312
89.7970     70.440    86.507
91.1031     70.683    87.608
92.4282     70.879    88.759
93.7726     71.034    90.101
95.1366     71.177    91.664
96.5204     71.333    93.359
97.9243     71.506    95.120
99.3486     71.692    96.911
100.794     71.872    98.599
102.260     72.025   100.197
103.747     72.162   101.744
105.256     72.289   103.237
106.787     72.405   104.746
108.340     72.492   106.309
109.916     72.526   108.073
111.515     72.537   110.248
113.137     72.572   112.514
114.783     72.600   114.784
116.452     72.608   117.240
118.146     72.605   119.913
119.865     72.594   122.628
121.608     72.564   125.320
123.377     72.541   128.133
125.171     72.530   131.066
126.992     72.503   134.227
128.839     72.445   137.564
130.713     72.353   140.957
132.615     72.242   144.482
134.543     72.148   148.401
136.500     72.089   152.572
138.486     72.027   156.365
140.500     71.923   160.598
142.544     71.767   165.362
144.617     71.608   170.095
146.721     71.517   175.194
148.855     71.482  -179.439
151.020     71.425  -174.420
153.217     71.323  -169.399
155.445     71.241  -164.358
157.706     71.128  -159.568
160.000     70.892  -153.512
162.327     70.723  -146.566
164.688     70.618  -140.399
167.084     70.609  -133.707
169.514     70.613  -127.928
171.980     70.319  -121.704
174.481     70.077  -114.362
177.019     69.981  -106.863
179.594     69.945   -98.680
182.206     69.891   -90.125
184.856     69.876   -82.157
187.545     69.934   -75.171
190.273     70.052   -67.535
193.041     70.084   -60.028
195.849     70.038   -52.442
198.697     70.008   -44.869
201.587     69.923   -37.257
204.520     69.744   -29.064
207.494     69.559   -20.430
210.512     69.460   -10.566
213.574     69.444    -1.201
216.681     69.406     7.440
219.833     69.309    16.256
223.030     69.266    26.425
226.274     69.243    37.078
229.565     69.272    46.931
232.905     69.253    56.501
236.292     69.269    66.804
239.729     69.335    77.573
243.216     69.452    87.817
246.754     69.408    97.319
250.343     69.305   108.110
253.984     69.305   119.949
257.678     69.316   131.115
261.426     69.373   142.758
265.229     69.279   153.473
269.087     69.096   164.093
273.001     69.129   177.277
276.972     69.248  -170.584
281.000     69.277  -158.567
285.088     69.336  -145.485
289.234     69.448  -132.411
293.441     69.620  -120.645
297.709     69.571  -108.883
302.040     69.493   -96.729
306.433     69.218   -83.590
310.890     69.342   -68.359
315.412     69.430   -55.709
320.000     69.265   -42.482
324.655     69.069   -28.071
329.377     69.065   -12.953
334.168     69.109     1.694
339.028     69.044    18.008
343.959     69.273    32.587
348.962     69.143    46.992
354.038     68.905    62.004
359.188     68.983    78.101
364.412     68.834    94.179
369.713     68.754   111.685
375.090     68.766   127.896
380.546     68.723   145.147
386.081     68.786   161.945
391.697     68.622   178.826
397.394     68.495  -163.500
403.175     68.305  -145.590
409.039     68.174  -126.633
414.989     68.102  -107.695
421.025     68.034   -88.646
427.149     67.942   -69.902
433.362     67.841   -50.634
439.665     67.773   -30.471
446.060     67.643   -10.265
452.548     67.536    10.058
459.131     67.440    30.885
465.809     67.366    52.462
472.584     67.302    74.054
479.458     67.251    95.640
486.432     67.184   117.982
493.507     67.142   140.622
500.686     67.104   164.029
507.968     67.086  -172.627
515.357     67.072  -149.141
522.853     67.026  -125.142
530.458     67.020  -100.609
538.174     67.010   -76.108
546.002     66.988   -51.604
553.943     66.980   -26.593
562.001     66.994    -0.983
570.175     66.985    25.209
578.469     66.987    51.975
586.883     66.983    78.645
595.419     66.981   105.328
604.080     66.982   132.585
612.866     66.985   160.296
621.780     66.988  -171.292
630.824     66.981  -142.295
640.000     66.972  -113.379
649.309     66.957   -84.503
658.753     66.960   -55.014
668.335     66.933   -24.332
678.056     66.931     6.243
687.919     66.927    37.579
697.925     66.893    69.480
708.077     66.871   101.256
718.376     66.847   133.747
728.825     66.828   166.657
739.426     66.813  -159.723
750.181     66.794  -125.427
761.093     66.758   -90.648
772.163     66.739   -55.955
783.394     66.723   -20.552
794.789     66.707    15.901
806.349     66.698    52.496
818.078     66.678    89.672
829.977     66.642   127.309
842.050     66.635   165.536
854.298     66.605  -155.598
866.724     66.569  -116.936
879.330     66.542   -77.006
892.120     66.507   -36.588
905.097     66.460     4.256
918.262     66.428    45.814
931.618     66.361    87.786
945.169     66.297   130.368
958.917     66.217   173.421
972.864     66.115  -142.919
987.015     65.974   -98.714
1001.37     65.808   -53.545
1015.94     65.614    -7.619
1030.71     65.370    38.162
1045.71     65.088    85.224
1060.92     64.755   133.563
1076.35     64.337  -177.867
1092.00     63.872  -128.542
1107.89     63.329   -77.522
1124.00     62.717   -25.285
1140.35     62.049    28.412
1156.94     61.321    84.653
1173.77     60.669   142.545
1190.84     60.135  -156.963
1208.16     59.875   -94.773
1225.73     59.929   -30.961
1243.56     60.366    33.247
1261.65     61.075    96.432
1280.00     61.882   158.459
1298.62     62.683  -140.864
1317.51     63.443   -80.508
1336.67     64.094   -20.114
1356.11     64.611    39.990
1375.84     65.003   100.570
1395.85     65.248   161.946
1416.15     65.333  -136.371
1436.75     65.285   -74.164
1457.65     65.071   -10.807
1478.85     64.732    54.000
1500.36     64.248   119.844
1522.19     63.644  -172.558
1544.33     62.922  -103.000
1566.79     62.144   -31.337
1589.58     61.353    42.493
1612.70     60.612   117.769
1636.16     59.914  -165.367
1659.95     59.281   -87.592
1684.10     58.684    -9.009
1708.60     57.911    70.116
1733.45     56.932   148.921
1758.66     55.529  -130.386
1784.24     53.457   -47.018
1810.19     50.407    41.787
1836.52     46.620   148.057
1863.24     46.041   -81.452
1890.34     49.805    31.782
1917.83     53.155   126.671
1945.73     55.350  -144.198
1974.03     56.804   -55.604
2002.74     57.600    33.787
2031.87     57.998   124.603
2061.43     57.981  -142.271
2091.41     57.788   -45.650
2121.83     57.485    54.886
2152.69     57.315   157.689
2184.01     57.411   -97.141
2215.77     57.728     9.071
2248.00     58.174   115.076
2280.70     58.516  -139.114
2313.87     58.691   -32.661
2347.53     58.678    75.042
2381.68     58.488  -175.909
2416.32     58.118   -64.569
2451.46     57.664    49.241
2487.12     57.146   165.680
2523.30     56.578   -75.889
2560.00     56.005    44.478
2597.24     55.374   166.053
2635.01     54.590   -70.880
2673.34     53.568    53.938
2712.23     52.170  -178.514
2751.68     50.155   -46.394
2791.70     47.567    94.611
2832.31     45.390  -108.708
2873.50     46.216    54.243
2915.30     48.736  -154.093
2957.70     50.770   -11.193
3000.72     51.943   129.592
3044.37     52.476   -88.112
3088.65     52.597    58.478
3133.58     52.741  -150.460
3179.16     53.129     3.360
3225.40     53.813   158.559
3272.31     54.481   -46.709
3319.91     54.970   108.555
3368.20     55.234   -94.536
3417.19     55.235    63.736
3466.89     54.967  -135.649
3517.32     54.330    28.691
3568.48     53.323  -163.412
3620.39     52.274    10.554
3673.05     51.536  -168.754
3726.47     51.404    13.882
3780.67     51.485  -164.556
3835.67     51.260    17.614
3891.46     50.663  -156.987
3948.06     49.917    32.855
4005.49     49.227  -133.740
4063.75     48.432    63.714
4122.86     47.459   -93.593
4182.82     46.978   116.010
4243.66     47.683   -32.644
4305.39     48.607   174.219
4368.01     48.658    18.943
4431.55     47.877  -131.895
4496.01     46.781    86.876
4561.40     46.465   -47.778
4627.75     46.861   176.838
4695.06     46.845    38.978
4763.35     45.810   -97.004
4832.64     43.677   137.117
4902.93     41.875    29.876
4974.24     42.691   -72.271
5046.60     44.322   175.631
5120.00     45.127    60.967
5194.47     45.246   -48.507
5270.03     45.358  -153.337
5346.68     45.713   104.324
5424.45     45.786     3.393
5503.35     45.207   -94.621
5583.40     43.756   174.225
5664.61     42.314    95.259
5747.01     41.713    22.842
5830.60     41.003   -47.748
5915.41     40.523  -104.786
6001.45     42.652  -157.220
6088.74     45.056   138.366
6177.30     46.122    70.965
6267.15     46.098     9.823
6358.31     45.709   -41.736
6450.80     45.702   -83.274
6544.62     46.505  -120.766
6639.82     47.759  -155.971
6736.40     49.283   171.024
6834.38     50.920   136.307
6933.79     51.801   101.446
7034.64     51.465    72.978
7136.96     51.077    56.587
7240.77     51.639    44.319
7346.09     51.579    31.161
7452.94     50.252    26.538
7561.35     49.324    35.179
7671.33     48.786    48.228
7782.91     48.315    69.577
7896.12     48.626    95.628
8010.97     48.819   122.804
8127.49     48.524   158.379
8245.71     48.910  -158.473
8365.65     49.678  -115.153
8487.33     49.629   -68.630
8610.78     49.036   -11.070
8736.03     49.510    56.855
8863.09     50.481   124.647
8992.01     51.169  -163.989
9122.80     51.277   -88.034
9255.50     51.317    -1.679
9390.12     51.683    87.980
9526.70     51.223  -175.968
9665.27     50.442   -70.280
9805.86     50.396    48.362
9948.49     50.569   164.908
10093.2     49.629   -65.938
10240.0     49.709    74.445
10388.9     50.533  -139.335
10540.1     51.368     4.826
10693.4     50.921   155.955
10848.9     49.968   -38.966
11006.7     49.847   139.415
11166.8     50.641   -37.635
11329.2     51.578   146.653
11494.0     51.749   -23.747
11661.2     51.493   174.542
11830.8     51.071    24.685
12002.9     51.016  -118.404
12177.5     50.872   106.490
12354.6     50.697   -20.890
12534.3     50.573  -142.226
12716.6     49.828    98.797
12901.6     47.402    -8.150
13089.2     44.260   -91.787
13279.6     43.587  -159.984
13472.8     43.878   129.228
13668.8     43.168    58.758
13867.6     41.142    -3.247
14069.3     37.994   -54.724
14273.9     34.497   -92.705
14481.5     29.979  -115.507
14692.2     28.193  -119.321
14905.9     29.728  -136.002
15122.7     31.263  -168.302
15342.7     31.641   176.339
15565.8     33.514  -171.304
15792.2     35.184  -152.656
16021.9     34.478  -125.901
16255.0     29.802   -89.364
16491.4     22.091   -27.536
16731.3     30.050   153.455
16974.7     30.728  -122.760
17221.6     30.548   -10.317
17472.1     30.577   124.086
17726.2     32.762   -98.652
17984.0     32.731    51.894
18245.6     33.123  -150.797
18511.0     33.041    16.632
18780.2     32.199  -167.295
19053.4     29.249    33.624
19330.5     27.746  -124.575
19611.7     25.893   110.931
19897.0     23.995    47.270
20186.4     24.445   146.262
20480.0     23.107   169.689
20777.9     22.470   -57.525
21080.1     22.186   124.994
21386.7     20.348    -5.052
21697.8     16.252   -23.791
22013.4     14.736    68.381
22333.6     16.204   130.735
22658.4     17.728   -97.005
22988.0     17.595    22.532
23322.4     18.561  -156.113
23661.6     17.687   -57.956
24005.8     20.053     4.335
24355.0     20.428  -141.902
24709.2     22.442   -10.065
25068.6     21.945  -100.845
25433.2     20.987   150.633
25803.2     18.926   168.506
26178.5     18.645   -45.148
26559.3     16.841   -10.388
26945.6     19.849    38.909
27337.5     18.002   -55.733
27735.2     17.646   114.918
28138.6     18.881  -148.732
28547.9     19.673    19.684
28963.1     19.425    65.949
29384.4     19.446   -52.482
29811.8     19.015   -64.918
30245.4     16.383  -156.143
30685.3     17.384    27.696
31131.7     17.052   -47.053
31584.5     16.801  -171.584
32043.9     17.844     0.875
32510.0     17.573  -137.061
32982.8     18.819   123.887
33462.6     18.623   -63.410
33949.3     20.168   -73.290
34443.1     20.773     9.492
34944.1     19.240   -36.057
35452.4     19.238   -15.618
35968.0     19.311   -86.637
36491.2     18.510   164.092
37022.0     19.009  -156.129
37560.5     19.202   176.964
38106.8     19.594   113.719
38661.1     17.787   145.429
39223.4     18.009   -37.823
39793.9     19.338  -171.245
