Freq[Hz]     dBSPL  Phase[Deg]
5.00000    -26.908  -147.011
5.07273    -26.532  -146.598
5.14651    -26.272  -146.235
5.22137    -26.336  -146.011
5.29732    -26.400  -145.788
5.37437    -26.463  -145.564
5.45254    -26.527  -145.341
5.53185    -26.842  -143.842
5.61231    -27.423  -140.993
5.69394    -28.004  -138.145
5.77676    -28.585  -135.296
5.86079    -29.158  -132.310
5.94604    -29.305  -121.227
6.03252    -29.451  -110.143
6.12027    -29.598   -99.060
6.20929    -29.744   -87.977
6.29961    -28.772   -80.853
6.39124    -27.551   -74.606
6.48420    -26.330   -68.360
6.57851    -25.109   -62.114
6.67420    -24.273   -60.789
6.77128    -23.499   -60.263
6.86977    -22.726   -59.737
6.96969    -22.032   -59.286
7.07107    -21.944   -59.402
7.17392    -21.856   -59.519
7.27827    -21.767   -59.636
7.38413    -22.082   -57.533
7.49154    -22.707   -53.715
7.60050    -23.333   -49.897
7.71105    -23.833   -44.227
7.82321    -23.782   -30.422
7.93701    -23.731   -16.617
8.05245    -23.680    -2.812
8.16958    -22.179     5.001
8.28841    -20.624    12.590
8.40896    -19.070    20.179
8.53128    -18.023    22.960
8.65537    -17.041    25.120
8.78126    -16.059    27.280
8.90899    -15.609    31.618
9.03857    -15.194    36.100
9.17004    -14.714    41.128
9.30342    -13.722    50.509
9.43874    -12.730    59.890
9.57603    -11.346    67.536
9.71532     -9.364    72.531
9.85663     -7.383    77.526
10.0000     -5.571    77.718
10.1455     -3.806    76.571
10.2930     -2.181    74.674
10.4427     -0.945    70.677
10.5946      0.291    66.680
10.7487      1.122    61.799
10.9051      1.872    56.740
11.0637      2.378    51.747
11.2246      2.628    46.824
11.3879      2.763    42.301
11.5535      2.482    39.233
11.7216      2.195    36.256
11.8921      1.558    38.609
12.0650      0.920    40.962
12.2405      1.050    49.680
12.4186      1.279    59.218
12.5992      2.673    65.133
12.7825      4.326    70.245
12.9684      5.961    69.058
13.1570      7.591    66.404
13.3484      8.783    60.361
13.5426      9.904    53.768
13.7395     10.510    45.355
13.9394     11.033    36.762
14.1421     11.074    27.331
14.3478     10.918    17.807
14.5565     10.340     8.083
14.7683      9.292    -1.253
14.9831      7.880   -10.292
15.2010      5.259   -15.853
15.4221      2.140   -15.532
15.6464     -2.263     8.021
15.8740     -2.091    35.097
16.1049      1.733    64.988
16.3392      4.737    62.471
16.5768      7.091    56.674
16.8179      8.544    47.869
17.0626      9.203    38.558
17.3107      9.502    29.638
17.5625      9.408    21.413
17.8180      8.853    15.756
18.0771      8.147    12.580
18.3401      7.354    12.218
18.6068      6.802    16.606
18.8775      6.819    23.078
19.1521      7.313    29.902
19.4306      8.264    35.978
19.7133      9.566    40.030
20.0000     11.019    42.301
20.2909     12.532    42.861
20.5860     14.024    41.718
20.8855     15.400    39.013
21.1893     16.509    35.151
21.4975     17.339    31.258
21.8102     17.918    28.150
22.1274     18.322    26.577
22.4492     18.693    27.006
22.7758     19.217    29.261
23.1071     20.041    32.225
23.4432     21.129    34.304
23.7841     22.285    34.634
24.1301     23.326    33.748
24.4811     24.204    32.459
24.8372     24.949    31.411
25.1984     25.641    30.877
25.5649     26.351    30.695
25.9368     27.104    30.454
26.3141     27.873    29.844
26.6968     28.615    28.857
27.0851     29.310    27.720
27.4791     29.982    26.659
27.8788     30.673    25.676
28.2843     31.406    24.560
28.6957     32.162    23.122
29.1131     32.910    21.380
29.5365     33.630    19.546
29.9661     34.334    17.865
30.4020     35.054    16.441
30.8442     35.827    15.161
31.2929     36.636    13.807
31.7480     37.456    12.325
32.2098     38.262    10.816
32.6783     39.052     9.460
33.1536     39.847     8.273
33.6359     40.658     7.133
34.1251     41.473     5.887
34.6215     42.271     4.503
35.1250     43.045     3.062
35.6359     43.803     1.612
36.1543     44.564     0.086
36.6802     45.330    -1.635
37.2137     46.088    -3.601
37.7550     46.841    -5.733
38.3041     47.597    -8.007
38.8613     48.370   -10.460
39.4265     49.154   -13.181
40.0000     49.930   -16.092
40.5818     50.701   -19.094
41.1721     51.479   -22.211
41.7710     52.250   -25.556
42.3785     52.970   -29.123
42.9949     53.622   -32.554
43.6203     54.243   -35.568
44.2548     54.910   -38.275
44.8985     55.632   -41.239
45.5515     56.351   -44.712
46.2141     57.022   -48.516
46.8863     57.651   -52.379
47.5683     58.271   -56.290
48.2602     58.879   -60.371
48.9621     59.461   -64.608
49.6743     60.010   -68.917
50.3968     60.528   -73.265
51.1299     61.011   -77.630
51.8736     61.458   -81.978
52.6281     61.874   -86.313
53.3936     62.261   -90.655
54.1702     62.616   -94.961
54.9581     62.951   -99.192
55.7575     63.269  -103.346
56.5685     63.573  -107.401
57.3914     63.858  -111.305
58.2261     64.124  -115.033
59.0730     64.361  -118.554
59.9323     64.569  -121.849
60.8040     64.754  -124.934
61.6884     64.923  -127.897
62.5857     65.081  -130.870
63.4960     65.226  -133.910
64.4196     65.369  -137.000
65.3566     65.520  -140.118
66.3073     65.683  -143.206
67.2717     65.864  -146.182
68.2502     66.056  -148.951
69.2429     66.263  -151.454
70.2501     66.487  -153.758
71.2719     66.716  -155.982
72.3086     66.932  -158.238
73.3603     67.120  -160.507
74.4274     67.305  -162.732
75.5099     67.492  -165.115
76.6083     67.658  -167.501
77.7226     67.844  -169.662
78.8531     68.074  -171.823
80.0000     68.327  -174.050
81.1636     68.594  -176.346
82.3442     68.868  -178.746
83.5419     69.139   178.732
84.7570     69.400   176.142
85.9899     69.655   173.539
87.2406     69.911   170.977
88.5096     70.188   168.424
89.7970     70.474   165.692
91.1031     70.742   162.737
92.4282     70.966   159.708
93.7726     71.160   156.792
95.1366     71.343   154.070
96.5204     71.540   151.458
97.9243     71.746   148.851
99.3486     71.962   146.175
100.794     72.174   143.294
102.260     72.368   140.260
103.747     72.546   137.150
105.256     72.708   133.953
106.787     72.849   130.684
108.340     72.959   127.329
109.916     73.021   124.043
111.515     73.074   121.110
113.137     73.153   118.271
114.783     73.215   115.421
116.452     73.243   112.652
118.146     73.257   109.925
119.865     73.273   107.104
121.608     73.283   104.226
123.377     73.295   101.480
125.171     73.299    98.776
126.992     73.278    96.093
128.839     73.238    93.366
130.713     73.191    90.619
132.615     73.134    88.078
134.543     73.074    85.859
136.500     73.026    83.705
138.486     72.966    81.607
140.500     72.878    79.261
142.544     72.757    76.897
144.617     72.629    75.198
146.721     72.554    73.883
148.855     72.528    72.174
151.020     72.491    70.065
153.217     72.417    68.028
155.445     72.350    66.100
157.706     72.230    63.873
160.000     71.986    62.158
162.327     71.833    61.283
164.688     71.752    60.348
167.084     71.754    59.445
169.514     71.753    56.991
171.980     71.457    54.943
174.481     71.206    54.638
177.019     71.085    54.391
179.594     71.040    54.031
182.206     71.028    53.566
184.856     71.044    52.972
187.545     71.056    52.026
190.273     71.100    50.683
193.041     71.113    48.973
195.849     71.086    47.650
198.697     71.037    45.965
201.587     70.902    44.141
204.520     70.693    42.767
207.494     70.490    41.971
210.512     70.350    41.877
213.574     70.293    41.168
216.681     70.237    40.425
219.833     70.095    39.522
223.030     69.953    39.194
226.274     69.873    39.070
229.565     69.872    38.505
232.905     69.766    37.760
236.292     69.696    37.477
239.729     69.694    37.196
243.216     69.730    36.441
246.754     69.607    35.032
250.343     69.385    34.330
253.984     69.292    34.422
257.678     69.231    34.150
261.426     69.192    33.639
265.229     69.074    32.523
269.087     68.766    31.891
273.001     68.630    33.133
276.972     68.660    33.367
281.000     68.576    33.169
285.088     68.525    33.439
289.234     68.531    33.850
293.441     68.598    32.994
297.709     68.447    32.178
302.040     68.293    31.748
306.433     67.952    32.083
310.890     67.980    33.947
315.412     68.004    33.245
320.000     67.769    33.185
324.655     67.530    34.202
329.377     67.514    36.034
334.168     67.545    36.440
339.028     67.488    38.331
343.959     67.738    38.568
348.962     67.681    38.288
354.038     67.536    39.211
359.188     67.657    40.158
364.412     67.615    40.486
369.713     67.656    42.011
375.090     67.806    42.356
380.546     67.897    43.000
386.081     68.092    42.964
391.697     68.092    42.405
397.394     68.103    41.945
403.175     68.042    42.116
409.039     68.053    42.498
414.989     68.118    42.448
421.025     68.163    42.234
427.149     68.152    41.783
433.362     68.127    41.558
439.665     68.118    41.039
446.060     68.045    40.552
452.548     67.971    40.208
459.131     67.885    39.844
465.809     67.792    39.641
472.584     67.688    39.469
479.458     67.581    39.432
486.432     67.455    39.504
493.507     67.326    39.619
500.686     67.206    40.000
507.968     67.075    40.471
515.357     66.952    41.112
522.853     66.848    41.793
530.458     66.757    42.711
538.174     66.696    43.629
546.002     66.647    44.680
553.943     66.627    45.694
562.001     66.620    46.622
570.175     66.649    47.491
578.469     66.687    48.273
586.883     66.745    48.840
595.419     66.799    49.248
604.080     66.855    49.504
612.866     66.896    49.596
621.780     66.914    49.489
630.824     66.921    49.300
640.000     66.874    48.945
649.309     66.815    48.507
658.753     66.713    48.157
668.335     66.561    47.794
678.056     66.374    47.545
687.919     66.138    47.525
697.925     65.862    47.695
708.077     65.565    48.232
718.376     65.238    49.197
728.825     64.892    50.637
739.426     64.562    52.632
750.181     64.262    55.073
761.093     64.017    58.077
772.163     63.870    61.423
783.394     63.801    64.998
794.789     63.823    68.570
806.349     63.957    71.827
818.078     64.153    74.817
829.977     64.391    77.317
842.050     64.662    79.342
854.298     64.928    80.932
866.724     65.184    82.074
879.330     65.412    82.969
892.120     65.604    83.649
905.097     65.754    84.080
918.262     65.880    84.478
931.618     65.968    84.870
945.169     66.019    85.415
958.917     66.041    85.991
972.864     66.051    86.754
987.015     66.058    87.727
1001.37     66.068    88.974
1015.94     66.095    90.320
1030.71     66.161    91.834
1045.71     66.266    93.264
1060.92     66.432    94.499
1076.35     66.636    95.463
1092.00     66.852    95.970
1107.89     67.066    95.956
1124.00     67.251    95.327
1140.35     67.369    94.204
1156.94     67.394    92.689
1173.77     67.293    90.851
1190.84     67.046    89.027
1208.16     66.632    87.395
1225.73     66.040    86.511
1243.56     65.259    86.792
1261.65     64.375    89.013
1280.00     63.524    93.923
1298.62     62.935   101.438
1317.51     62.882   110.273
1336.67     63.361   118.071
1356.11     64.186   123.047
1375.84     65.011   125.134
1395.85     65.696   124.951
1416.15     66.136   123.375
1436.75     66.306   121.238
1457.65     66.203   119.187
1478.85     65.838   117.828
1500.36     65.297   117.862
1522.19     64.670   119.941
1544.33     64.111   124.244
1566.79     63.827   130.021
1589.58     63.893   136.183
1612.70     64.209   141.230
1636.16     64.613   144.829
1659.95     64.969   147.343
1684.10     65.227   149.422
1708.60     65.414   151.773
1733.45     65.593   154.627
1758.66     65.860   157.951
1784.24     66.279   161.275
1810.19     66.838   163.904
1836.52     67.475   165.469
1863.24     68.105   165.832
1890.34     68.660   165.149
1917.83     69.092   163.715
1945.73     69.379   161.883
1974.03     69.518   160.004
2002.74     69.532   158.517
2031.87     69.461   157.697
2061.43     69.374   157.662
2091.41     69.354   158.208
2121.83     69.445   158.810
2152.69     69.611   158.893
2184.01     69.773   158.138
2215.77     69.840   156.711
2248.00     69.770   155.182
2280.70     69.585   154.219
2313.87     69.380   154.105
2347.53     69.270   154.618
2381.68     69.297   154.904
2416.32     69.381   154.203
2451.46     69.380   152.477
2487.12     69.200   150.419
2523.30     68.843   149.120
2560.00     68.471   149.257
2597.24     68.286   150.349
2635.01     68.362   150.917
2673.34     68.538   149.696
2712.23     68.579   146.797
2751.68     68.358   143.381
2791.70     67.920   140.865
2832.31     67.476   139.982
2873.50     67.253   139.967
2915.30     67.284   139.075
2957.70     67.360   136.303
3000.72     67.270   132.142
3044.37     66.957   127.866
3088.65     66.521   124.506
3133.58     66.137   122.209
3179.16     65.935   120.079
3225.40     65.848   117.127
3272.31     65.731   113.203
3319.91     65.505   109.051
3368.20     65.233   105.647
3417.19     65.075   102.998
3466.89     65.105   100.001
3517.32     65.169    95.688
3568.48     65.045    90.793
3620.39     64.735    87.144
3673.05     64.546    85.443
3726.47     64.683    83.739
3780.67     64.866    80.144
3835.67     64.751    76.016
3891.46     64.454    74.022
3948.06     64.386    73.840
4005.49     64.544    72.882
4063.75     64.595    71.379
4122.86     64.650    71.454
4182.82     65.057    71.563
4243.66     65.560    69.152
4305.39     65.769    65.605
4368.01     65.852    62.922
4431.55     65.980    59.787
4496.01     65.846    55.676
4561.40     65.352    53.562
4627.75     65.064    54.707
4695.06     65.243    55.379
4763.35     65.444    53.913
4832.64     65.512    52.213
4902.93     65.644    50.633
4974.24     65.821    47.804
5046.60     65.789    43.761
5120.00     65.501    40.721
5194.47     65.357    38.931
5270.03     65.298    35.451
5346.68     64.809    31.809
5424.45     64.328    31.539
5503.35     64.277    30.457
5583.40     63.869    27.833
5664.61     63.367    29.175
5747.01     63.506    30.694
5830.60     63.599    29.334
5915.41     63.467    29.102
6001.45     63.613    30.040
6088.74     63.915    28.829
6177.30     63.867    27.692
6267.15     64.132    28.732
6358.31     64.515    25.933
6450.80     64.280    25.076
6544.62     64.723    26.873
6639.82     65.258    24.181
6736.40     65.602    21.844
6834.38     66.031    16.613
6933.79     65.738    10.468
7034.64     65.297     7.291
7136.96     64.770     4.030
7240.77     64.080     3.880
7346.09     63.874     4.186
7452.94     63.461     3.207
7561.35     63.318     3.820
7671.33     63.012     1.078
7782.91     62.504     2.076
7896.12     62.340     1.043
8010.97     61.921     1.609
8127.49     61.820     0.399
8245.71     61.303     0.973
8365.65     61.280     1.625
8487.33     61.197     1.694
8610.78     61.261    -0.300
8736.03     60.838    -1.465
8863.09     60.821    -2.134
8992.01     60.447    -3.381
9122.80     60.304    -5.188
9255.50     59.568    -4.840
9390.12     59.457    -5.159
9526.70     58.814    -3.119
9665.27     58.639    -2.763
9805.86     58.211     1.409
9948.49     58.345     2.888
10093.2     58.413     6.466
10240.0     58.799     4.905
10388.9     58.855     5.077
10540.1     58.714     2.687
10693.4     58.642     2.264
10848.9     58.218     0.945
11006.7     57.996     2.917
11166.8     57.866     3.394
11329.2     58.094     2.883
11494.0     57.748     2.025
11661.2     57.418     0.807
11830.8     57.294     3.095
12002.9     56.938     2.002
12177.5     56.780     2.614
12354.6     56.742     5.579
12534.3     56.593     6.523
12716.6     56.944     7.172
12901.6     57.611     7.097
13089.2     57.879     2.757
13279.6     57.852    -2.002
13472.8     57.923    -5.236
13668.8     58.057    -9.570
13867.6     57.950   -16.864
14069.3     57.429   -24.689
14273.9     56.654   -30.784
14481.5     55.725   -36.189
14692.2     54.604   -42.122
14905.9     53.456   -47.490
15122.7     52.113   -51.504
15342.7     50.890   -53.828
15565.8     49.819   -58.171
15792.2     48.612   -64.260
16021.9     47.226   -70.777
16255.0     46.214   -76.589
16491.4     45.627   -86.273
16731.3     46.136  -102.139
16974.7     46.587  -128.071
17221.6     47.058  -155.527
17472.1     47.649   178.009
17726.2     47.876   153.357
17984.0     47.575   135.692
18245.6     47.221   124.466
18511.0     47.174   116.382
18780.2     47.223   109.782
19053.4     47.050   103.300
19330.5     46.863    98.895
19611.7     46.793    94.670
19897.0     46.698    90.284
20186.4     46.668    84.892
20480.0     46.328    78.062
20777.9     45.537    73.528
21080.1     45.258    71.654
21386.7     45.095    66.026
21697.8     44.805    58.260
22013.4     44.363    49.813
22333.6     43.850    39.519
22658.4     43.280    28.846
22988.0     42.795    14.914
23322.4     42.435    -1.376
23661.6     42.024   -18.792
24005.8     41.955   -37.192
24355.0     41.737   -56.178
24709.2     41.348   -75.018
25068.6     40.522   -89.745
25433.2     39.614   -97.120
25803.2     39.155  -101.463
26178.5     39.045  -101.616
26559.3     39.388  -103.405
26945.6     39.593  -105.204
27337.5     40.195  -106.248
27735.2     40.423  -109.990
28138.6     40.572  -112.387
28547.9     40.651  -113.990
28963.1     40.651  -115.532
29384.4     40.741  -118.008
29811.8     41.010  -122.035
30245.4     41.160  -127.084
30685.3     41.122  -134.653
31131.7     40.576  -146.698
31584.5     39.245  -160.415
32043.9     36.538  -177.995
32510.0     31.965   167.236
32982.8     23.196  -166.335
33462.6     14.397   129.486
33949.3     21.977   -20.016
34443.1     28.009   -23.509
34944.1     32.060   -29.904
35452.4     34.258   -42.416
35968.0     35.448   -55.699
36491.2     36.226   -69.175
37022.0     36.620   -88.829
37560.5     35.228  -116.571
38106.8     31.696  -151.814
38661.1     24.777   152.938
39223.4     18.871  -167.090
39793.9     19.593   -74.786
