Freq[Hz]     dBSPL  Phase[Deg]
5.00000    -26.538  -129.254
5.07273    -26.165  -128.674
5.14651    -25.908  -128.142
5.22137    -25.973  -127.743
5.29732    -26.038  -127.345
5.37437    -26.103  -126.946
5.45254    -26.169  -126.547
5.53185    -26.483  -124.866
5.61231    -27.062  -121.829
5.69394    -27.641  -118.791
5.77676    -28.220  -115.754
5.86079    -28.791  -112.578
5.94604    -28.932  -101.286
6.03252    -29.073   -89.994
6.12027    -29.214   -78.703
6.20929    -29.354   -67.411
6.29961    -28.373   -60.056
6.39124    -27.144   -53.575
6.48420    -25.914   -47.094
6.57851    -24.684   -40.613
6.67420    -23.836   -39.025
6.77128    -23.051   -38.232
6.86977    -22.265   -37.439
6.96969    -21.559   -36.716
7.07107    -21.456   -36.527
7.17392    -21.353   -36.339
7.27827    -21.250   -36.150
7.38413    -21.548   -33.719
7.49154    -22.157   -29.553
7.60050    -22.766   -25.388
7.71105    -23.249   -19.363
7.82321    -23.181    -5.166
7.93701    -23.113     9.031
8.05245    -23.045    23.228
8.16958    -21.528    31.477
8.28841    -19.956    39.503
8.40896    -18.384    47.530
8.53128    -17.320    50.788
8.65537    -16.323    53.430
8.78126    -15.325    56.073
8.90899    -14.861    60.934
9.03857    -14.432    65.941
9.17004    -13.939    71.499
9.30342    -12.936    81.445
9.43874    -11.932    91.392
9.57603    -10.539    99.617
9.71532     -8.550   105.212
9.85663     -6.560   110.808
10.0000     -4.744   111.624
10.1455     -2.976   111.109
10.2930     -1.348   109.848
10.4427     -0.113   106.508
10.5946      1.122   103.167
10.7487      1.948    98.956
10.9051      2.692    94.572
11.0637      3.191    90.260
11.2246      3.431    86.025
11.3879      3.555    82.189
11.5535      3.260    79.815
11.7216      2.958    77.532
11.8921      2.302    80.579
12.0650      1.645    83.627
12.2405      1.754    93.035
12.4186      1.961   103.263
12.5992      3.331   109.860
12.7825      4.959   115.653
12.9684      6.567   115.136
13.1570      8.171   113.149
13.3484      9.336   107.761
13.5426     10.429   101.820
13.7395     11.008    94.045
13.9394     11.504    86.087
14.1421     11.519    77.278
14.3478     11.338    68.373
14.5565     10.736    59.259
14.7683      9.666    50.528
14.9831      8.235    42.093
15.2010      5.597    37.132
15.4221      2.462    38.056
15.6464     -1.953    62.215
15.8740     -1.791    89.904
16.1049      2.027   120.413
16.3392      5.028   118.534
16.5768      7.380   113.386
16.8179      8.836   105.247
17.0626      9.500    96.630
17.3107      9.805    88.422
17.5625      9.719    80.933
17.8180      9.174    76.048
18.0771      8.478    73.667
18.3401      7.697    74.124
18.6068      7.155    79.367
18.8775      7.181    86.720
19.1521      7.684    94.448
19.4306      8.642   101.449
19.7133      9.950   106.453
20.0000     11.407   109.692
20.2909     12.922   111.233
20.5860     14.415   111.081
20.8855     15.789   109.375
21.1893     16.895   106.519
21.4975     17.721   103.631
21.8102     18.298   101.531
22.1274     18.699   100.964
22.4492     19.068   102.400
22.7758     19.592   105.663
23.1071     20.418   109.639
23.4432     21.513   112.739
23.7841     22.680   114.104
24.1301     23.735   114.275
24.4811     24.632   114.070
24.8372     25.401   114.143
25.1984     26.121   114.775
25.5649     26.861   115.810
25.9368     27.647   116.846
26.3141     28.450   117.578
26.6968     29.223   118.001
27.0851     29.949   118.344
27.4791     30.646   118.831
27.8788     31.355   119.462
28.2843     32.098   120.010
28.6957     32.855   120.278
29.1131     33.592   120.266
29.5365     34.292   120.172
29.9661     34.966   120.224
30.4020     35.647   120.511
30.8442     36.370   120.899
31.2929     37.128   121.164
31.7480     37.892   121.248
32.2098     38.643   121.251
32.6783     39.383   121.349
33.1536     40.135   121.577
33.6359     40.910   121.826
34.1251     41.701   121.960
34.6215     42.485   121.969
35.1250     43.257   121.953
35.6359     44.023   121.986
36.1543     44.800   122.012
36.6802     45.585   121.927
37.2137     46.366   121.691
37.7550     47.140   121.375
38.3041     47.912   121.005
38.8613     48.694   120.520
39.4265     49.478   119.820
40.0000     50.247   118.956
40.5818     51.000   118.007
41.1721     51.755   116.931
41.7710     52.499   115.608
42.3785     53.191   114.031
42.9949     53.816   112.567
43.6203     54.417   111.507
44.2548     55.069   110.755
44.8985     55.785   109.770
45.5515     56.506   108.315
46.2141     57.184   106.587
46.8863     57.825   104.868
47.5683     58.457   103.178
48.2602     59.078   101.391
48.9621     59.669    99.516
49.6743     60.223    97.628
50.3968     60.743    95.749
51.1299     61.221    93.892
51.8736     61.659    92.081
52.6281     62.062    90.301
53.3936     62.431    88.528
54.1702     62.767    86.792
54.9581     63.080    85.130
55.7575     63.380    83.537
56.5685     63.668    82.039
57.3914     63.943    80.697
58.2261     64.209    79.552
59.0730     64.456    78.664
59.9323     64.683    78.076
60.8040     64.893    77.797
61.6884     65.091    77.763
62.5857     65.275    77.838
63.4960     65.440    77.958
64.4196     65.590    78.107
65.3566     65.737    78.273
66.3073     65.887    78.479
67.2717     66.047    78.792
68.2502     66.221    79.309
69.2429     66.411    80.109
70.2501     66.620    81.149
71.2719     66.832    82.324
72.3086     67.029    83.508
73.3603     67.192    84.696
74.4274     67.349    85.908
75.5099     67.513    86.927
76.6083     67.669    87.924
77.7226     67.863    89.184
78.8531     68.122    90.561
80.0000     68.414    92.054
81.1636     68.719    93.686
82.3442     69.015    95.386
83.5419     69.287    97.055
84.7570     69.529    98.656
85.9899     69.758   100.189
87.2406     69.992   101.719
88.5096     70.259   103.278
89.7970     70.546   104.747
91.1031     70.814   106.113
92.4282     71.033   107.500
93.7726     71.210   109.037
95.1366     71.375   110.753
96.5204     71.562   112.571
97.9243     71.771   114.445
99.3486     72.001   116.367
100.794     72.231   118.234
102.260     72.435   120.071
103.747     72.617   121.909
105.256     72.780   123.706
106.787     72.924   125.493
108.340     73.038   127.286
109.916     73.100   129.245
111.515     73.145   131.618
113.137     73.213   134.099
114.783     73.272   136.588
116.452     73.309   139.237
118.146     73.338   142.076
119.865     73.365   144.971
121.608     73.373   147.895
123.377     73.380   150.974
125.171     73.385   154.124
126.992     73.376   157.400
128.839     73.350   160.793
130.713     73.307   164.299
132.615     73.245   168.070
134.543     73.181   172.312
136.500     73.136   176.751
138.486     73.083  -179.325
140.500     73.000  -175.011
142.544     72.878  -170.126
144.617     72.749  -165.222
146.721     72.680  -159.949
148.855     72.663  -154.448
151.020     72.632  -149.326
153.217     72.562  -144.154
155.445     72.503  -138.899
157.706     72.399  -133.917
160.000     72.170  -127.748
162.327     72.018  -120.720
164.688     71.930  -114.434
167.084     71.932  -107.612
169.514     71.949  -101.751
171.980     71.678   -95.397
174.481     71.445   -87.833
177.019     71.332   -80.201
179.594     71.291   -72.127
182.206     71.288   -63.621
184.856     71.323   -55.207
187.545     71.346   -47.669
190.273     71.385   -39.981
193.041     71.400   -32.801
195.849     71.398   -25.212
198.697     71.372   -17.257
201.587     71.242    -9.462
204.520     71.043    -1.311
207.494     70.860     7.437
210.512     70.738    17.527
213.574     70.694    26.970
216.681     70.655    35.780
219.833     70.526    45.050
223.030     70.392    55.400
226.274     70.336    65.901
229.565     70.368    76.077
232.905     70.281    86.106
236.292     70.226    96.571
239.729     70.229   107.585
243.216     70.280   118.000
246.754     70.190   127.864
250.343     69.982   139.092
253.984     69.898   151.097
257.678     69.815   162.675
261.426     69.771   174.190
265.229     69.713  -174.689
269.087     69.425  -162.795
273.001     69.292  -149.222
276.972     69.333  -136.610
281.000     69.241  -123.883
285.088     69.188  -110.146
289.234     69.174   -96.225
293.441     69.218   -83.766
297.709     69.065   -71.107
302.040     68.856   -58.043
306.433     68.482   -43.935
310.890     68.482   -27.392
315.412     68.443   -13.524
320.000     68.158     1.069
324.655     67.833    16.757
329.377     67.750    33.158
334.168     67.709    49.575
339.028     67.546    67.572
343.959     67.689    83.731
348.962     67.565    99.755
354.038     67.280   117.030
359.188     67.303   134.886
364.412     67.129   152.865
369.713     67.075   172.063
375.090     67.116  -169.802
380.546     67.116  -150.731
386.081     67.236  -132.285
391.697     67.156  -113.636
397.394     67.113   -94.336
403.175     66.998   -74.926
409.039     66.971   -54.689
414.989     67.005   -34.331
421.025     67.018   -14.062
427.149     66.993     5.808
433.362     66.964    25.875
439.665     66.968    46.990
446.060     66.899    68.061
452.548     66.836    89.282
459.131     66.738   110.982
465.809     66.677   133.381
472.584     66.588   155.843
479.458     66.497   178.425
486.432     66.407  -158.313
493.507     66.296  -134.316
500.686     66.188  -109.539
507.968     66.078   -84.637
515.357     65.987   -59.690
522.853     65.906   -33.878
530.458     65.842    -7.377
538.174     65.808    19.151
546.002     65.806    45.750
553.943     65.833    72.908
562.001     65.886   100.690
570.175     65.970   128.781
578.469     66.094   157.363
586.883     66.223  -174.255
595.419     66.355  -146.035
604.080     66.491  -117.596
612.866     66.601   -88.796
621.780     66.717   -59.614
630.824     66.781   -29.979
640.000     66.821    -0.630
649.309     66.809    28.718
658.753     66.754    58.483
668.335     66.645    89.538
678.056     66.468   120.562
687.919     66.238   152.386
697.925     65.952  -175.028
708.077     65.600  -141.950
718.376     65.210  -107.897
728.825     64.773   -72.630
739.426     64.338   -35.982
750.181     63.925     2.096
761.093     63.572    41.692
772.163     63.335    81.715
783.394     63.274   122.650
794.789     63.381   165.035
806.349     63.621  -153.184
818.078     63.956  -111.530
829.977     64.346   -70.218
842.050     64.759   -29.091
854.298     65.140    11.970
866.724     65.462    52.475
879.330     65.711    93.805
892.120     65.904   135.394
905.097     66.034   177.648
918.262     66.109  -139.451
931.618     66.128   -95.806
945.169     66.129   -51.310
958.917     66.133    -6.033
972.864     66.152    39.959
987.015     66.214    86.632
1001.37     66.301   134.262
1015.94     66.428  -177.754
1030.71     66.545  -130.348
1045.71     66.635   -82.277
1060.92     66.670   -33.692
1076.35     66.615    14.350
1092.00     66.430    62.545
1107.89     66.094   111.561
1124.00     65.561   161.176
1140.35     64.803  -148.444
1156.94     63.777   -96.253
1173.77     62.434   -42.105
1190.84     60.776    15.219
1208.16     58.908    77.533
1225.73     57.292   147.585
1243.56     56.794  -136.270
1261.65     57.668   -62.207
1280.00     59.047     5.711
1298.62     60.267    68.725
1317.51     61.128   129.883
1336.67     61.567  -169.270
1356.11     61.600  -108.357
1375.84     61.227   -45.748
1395.85     60.493    19.455
1416.15     59.478    87.941
1436.75     58.420   160.967
1457.65     57.741  -120.538
1478.85     57.847   -39.439
1500.36     58.643    39.749
1522.19     59.664   116.185
1544.33     60.549  -169.458
1566.79     61.165   -95.848
1589.58     61.514   -21.750
1612.70     61.597    52.997
1636.16     61.493   129.578
1659.95     61.277  -151.916
1684.10     61.004   -71.337
1708.60     60.678    11.103
1733.45     60.311    94.496
1758.66     59.898  -179.335
1784.24     59.432   -90.400
1810.19     59.066     1.115
1836.52     59.096    96.052
1863.24     59.664  -167.951
1890.34     60.607   -73.444
1917.83     61.612    18.694
1945.73     62.428   109.540
1974.03     62.873  -159.432
2002.74     62.964   -67.575
2031.87     62.715    26.465
2061.43     62.262   123.780
2091.41     61.826  -134.764
2121.83     61.678   -29.811
2152.69     61.891    75.377
2184.01     62.264  -179.369
2215.77     62.559   -74.137
2248.00     62.633    31.576
2280.70     62.517   138.924
2313.87     62.332  -110.543
2347.53     62.272     2.689
2381.68     62.429   116.907
2416.32     62.672  -128.350
2451.46     62.845   -13.324
2487.12     62.792   102.861
2523.30     62.546  -138.757
2560.00     62.185   -17.459
2597.24     61.887   106.080
2635.01     61.727  -128.422
2673.34     61.651    -1.834
2712.23     61.513   125.920
2751.68     61.245  -104.281
2791.70     60.882    27.847
2832.31     60.498   162.419
2873.50     60.189   -60.709
2915.30     59.971    77.923
2957.70     59.813  -141.600
3000.72     59.670    -0.189
3044.37     59.427   142.180
3088.65     58.961   -73.265
3133.58     58.290    74.439
3179.16     57.742  -133.133
3225.40     57.703    22.398
3272.31     58.070   176.515
3319.91     58.284   -31.560
3368.20     57.875   120.602
3417.19     56.822   -83.874
3466.89     55.587    78.198
3517.32     54.857  -114.092
3568.48     54.524    52.618
3620.39     53.808  -140.724
3673.05     52.680    31.660
3726.47     52.049  -149.078
3780.67     52.365    28.933
3835.67     52.335  -157.745
3891.46     51.161    17.787
3948.06     49.368  -155.485
4005.49     48.856    40.489
4063.75     49.432  -126.714
4122.86     49.396    65.120
4182.82     49.448   -96.910
4243.66     50.626   101.581
4305.39     51.493   -67.221
4368.01     50.979   123.662
4431.55     49.301   -36.622
4496.01     47.800   173.969
4561.40     46.851    27.435
4627.75     45.425  -113.040
4695.06     45.214   118.246
4763.35     46.492   -18.126
4832.64     46.481  -160.634
4902.93     45.240    68.499
4974.24     45.337   -51.846
5046.60     46.349  -179.092
5120.00     46.579    53.355
5194.47     46.305   -69.004
5270.03     45.843   171.138
5346.68     44.851    59.960
5424.45     44.600   -39.278
5503.35     45.559  -137.285
5583.40     46.510   124.379
5664.61     47.179    28.118
5747.01     47.353   -62.245
5830.60     48.017  -144.998
5915.41     49.047   132.038
6001.45     49.404    53.063
6088.74     50.052   -19.150
6177.30     50.652   -91.281
6267.15     50.591  -155.263
6358.31     51.330   146.114
6450.80     51.477    87.287
6544.62     51.490    39.083
6639.82     51.919    -6.874
6736.40     51.814   -44.636
6834.38     52.728   -78.871
6933.79     52.790  -113.279
7034.64     52.818  -136.597
7136.96     53.200  -159.201
7240.77     53.184  -175.290
7346.09     53.305   172.964
7452.94     53.204   166.289
7561.35     53.261   163.748
7671.33     52.921   166.056
7782.91     52.465   173.847
7896.12     51.944  -170.308
8010.97     51.876  -151.770
8127.49     51.159  -127.110
8245.71     51.070   -95.448
8365.65     50.368   -60.664
8487.33     50.437   -16.675
8610.78     49.896    27.639
8736.03     49.591    82.548
8863.09     49.067   141.348
8992.01     48.655  -152.326
9122.80     47.899   -80.383
9255.50     46.681    -0.772
9390.12     46.051    91.511
9526.70     44.923  -174.658
9665.27     44.095   -71.762
9805.86     42.288    43.808
9948.49     41.970   164.147
10093.2     41.702   -66.265
10240.0     41.703    59.255
10388.9     41.590  -168.704
10540.1     41.276   -31.486
10693.4     41.357   104.736
10848.9     41.315  -113.853
11006.7     40.148    30.145
11166.8     39.733  -172.528
11329.2     39.288    -4.938
11494.0     40.240   170.079
11661.2     40.663    -7.817
11830.8     40.740  -177.024
12002.9     40.408    30.803
12177.5     40.917  -113.556
12354.6     42.257   107.695
12534.3     43.009   -21.305
12716.6     43.420  -145.057
12901.6     43.684   101.407
13089.2     43.788     0.536
13279.6     43.718   -93.614
13472.8     43.260  -176.064
13668.8     43.028   110.765
13867.6     42.825    45.993
14069.3     41.927   -10.807
14273.9     40.546   -55.530
14481.5     39.382   -86.670
14692.2     37.645  -111.883
14905.9     34.903  -120.776
15122.7     32.438  -117.627
15342.7     29.806  -104.074
15565.8     28.676   -62.325
15792.2     28.027   -15.964
16021.9     28.623  -102.191
16255.0     27.028    87.768
16491.4     20.815   116.731
16731.3     16.651    58.226
16974.7     18.313    67.361
17221.6     15.388  -138.917
17472.1     15.906   -76.422
17726.2     18.318  -154.893
17984.0     18.332   -65.953
18245.6     17.712  -138.556
18511.0     16.647   -64.188
18780.2     18.298   121.012
19053.4     20.080   155.764
19330.5     20.841    18.214
19611.7     21.396  -115.559
19897.0     18.445   -39.594
20186.4     15.751   -28.250
20480.0     14.899  -165.780
20777.9     13.706   -44.665
21080.1     15.632    32.816
21386.7     14.965   130.219
21697.8     14.787    62.833
22013.4     14.985  -158.620
22333.6     13.603    -8.862
22658.4     13.922  -152.776
22988.0     15.410   179.063
23322.4     16.852   158.555
23661.6     14.531  -119.382
24005.8     15.793   -47.732
24355.0     15.963   119.014
24709.2     13.396   -64.247
25068.6     15.812    61.235
25433.2     15.278   -74.918
25803.2     16.613    93.436
26178.5     15.764   -33.343
26559.3     15.155  -176.816
26945.6     13.671     7.036
27337.5     13.538   -50.751
27735.2     16.266   -68.671
28138.6     15.087   -87.302
28547.9     15.081   -69.827
28963.1     15.081    14.727
29384.4     15.751    25.018
29811.8     15.134    80.106
30245.4     15.560     8.339
30685.3     16.214    71.779
31131.7     15.341   142.906
31584.5     15.259    16.235
32043.9     16.302   145.453
32510.0     15.523   -47.484
32982.8     16.361  -155.260
33462.6     16.796   146.474
33949.3     15.152    20.925
34443.1     15.445    90.589
34944.1     16.021   121.863
35452.4     16.154  -109.681
35968.0     16.727   -15.471
36491.2     16.779  -154.440
37022.0     16.492   144.326
37560.5     16.367    -0.383
38106.8     17.115   173.463
38661.1     16.261   171.710
39223.4     17.134    81.926
39793.9     16.214  -138.837
