Freq[Hz]     dBSPL  Phase[Deg]
5.00000    -25.901  -147.882
5.07273    -25.524  -147.486
5.14651    -25.264  -147.141
5.22137    -25.327  -146.937
5.29732    -25.391  -146.732
5.37437    -25.455  -146.528
5.45254    -25.518  -146.324
5.53185    -25.833  -144.844
5.61231    -26.413  -142.015
5.69394    -26.994  -139.187
5.77676    -27.574  -136.358
5.86079    -28.147  -133.392
5.94604    -28.293  -122.329
6.03252    -28.439  -111.266
6.12027    -28.585  -100.203
6.20929    -28.731   -89.141
6.29961    -27.757   -82.036
6.39124    -26.534   -75.810
6.48420    -25.312   -69.584
6.57851    -24.090   -63.358
6.67420    -23.253   -62.053
6.77128    -22.478   -61.546
6.86977    -21.704   -61.040
6.96969    -21.009   -60.608
7.07107    -20.919   -60.743
7.17392    -20.829   -60.877
7.27827    -20.739   -61.012
7.38413    -21.052   -58.926
7.49154    -21.675   -55.125
7.60050    -22.299   -51.323
7.71105    -22.797   -45.669
7.82321    -22.744   -31.878
7.93701    -22.692   -18.087
8.05245    -22.639    -4.297
8.16958    -21.136     3.504
8.28841    -19.580    11.082
8.40896    -18.023    18.659
8.53128    -16.974    21.430
8.65537    -15.991    23.581
8.78126    -15.008    25.732
8.90899    -14.557    30.064
9.03857    -14.140    34.539
9.17004    -13.658    39.561
9.30342    -12.665    48.938
9.43874    -11.672    58.314
9.57603    -10.288    65.957
9.71532     -8.305    70.950
9.85663     -6.322    75.942
10.0000     -4.510    76.133
10.1455     -2.745    74.986
10.2930     -1.120    73.088
10.4427      0.115    69.092
10.5946      1.350    65.096
10.7487      2.180    60.215
10.9051      2.929    55.157
11.0637      3.434    50.165
11.2246      3.682    45.243
11.3879      3.816    40.719
11.5535      3.532    37.651
11.7216      3.242    34.673
11.8921      2.601    37.024
12.0650      1.960    39.374
12.2405      2.087    48.087
12.4186      2.312    57.621
12.5992      3.701    63.528
12.7825      5.349    68.631
12.9684      6.978    67.433
13.1570      8.604    64.766
13.3484      9.790    58.706
13.5426     10.906    52.096
13.7395     11.506    43.661
13.9394     12.023    35.045
14.1421     12.057    25.586
14.3478     11.895    16.033
14.5565     11.311     6.277
14.7683     10.256    -3.096
14.9831      8.838   -12.172
15.2010      6.211   -17.776
15.4221      3.085   -17.498
15.6464     -1.324     6.008
15.8740     -1.159    33.035
16.1049      2.659    62.874
16.3392      5.657    60.303
16.5768      8.004    54.449
16.8179      9.453    45.588
17.0626     10.106    36.217
17.3107     10.400    27.236
17.5625     10.301    18.949
17.8180      9.742    13.229
18.0771      9.030     9.988
18.3401      8.232     9.560
18.6068      7.675    13.879
18.8775      7.686    20.281
19.1521      8.177    27.033
19.4306      9.122    33.035
19.7133     10.419    37.011
20.0000     11.868    39.201
20.2909     13.376    39.676
20.5860     14.863    38.444
20.8855     16.235    35.646
21.1893     17.339    31.686
21.4975     18.166    27.688
21.8102     18.743    24.472
22.1274     19.146    22.786
22.4492     19.516    23.098
22.7758     20.042    25.234
23.1071     20.868    28.076
23.4432     21.961    30.035
23.7841     23.124    30.247
24.1301     24.173    29.249
24.4811     25.062    27.856
24.8372     25.820    26.716
25.1984     26.526    26.106
25.5649     27.252    25.865
25.9368     28.021    25.587
26.3141     28.807    24.964
26.6968     29.565    23.991
27.0851     30.275    22.895
27.4791     30.959    21.901
27.8788     31.659    21.011
28.2843     32.397    20.007
28.6957     33.153    18.696
29.1131     33.895    17.089
29.5365     34.603    15.388
29.9661     35.288    13.832
30.4020     35.986    12.513
30.8442     36.729    11.309
31.2929     37.506     9.997
31.7480     38.290     8.518
32.2098     39.059     6.972
32.6783     39.813     5.533
33.1536     40.574     4.224
33.6359     41.353     2.931
34.1251     42.142     1.504
34.6215     42.917    -0.080
35.1250     43.674    -1.728
35.6359     44.420    -3.383
36.1543     45.173    -5.104
36.6802     45.936    -7.001
37.2137     46.692    -9.119
37.7550     47.444   -11.377
38.3041     48.199   -13.752
38.8613     48.968   -16.289
39.4265     49.744   -19.080
40.0000     50.510   -22.060
40.5818     51.269   -25.138
41.1721     52.032   -28.345
41.7710     52.788   -31.796
42.3785     53.493   -35.489
42.9949     54.131   -39.058
43.6203     54.742   -42.215
44.2548     55.400   -45.061
44.8985     56.115   -48.151
45.5515     56.829   -51.734
46.2141     57.493   -55.629
46.8863     58.113   -59.567
47.5683     58.720   -63.548
48.2602     59.312   -67.706
48.9621     59.876   -72.037
49.6743     60.405   -76.466
50.3968     60.905   -80.957
51.1299     61.373   -85.481
51.8736     61.810   -89.985
52.6281     62.222   -94.455
53.3936     62.604   -98.888
54.1702     62.953  -103.236
54.9581     63.273  -107.465
55.7575     63.567  -111.603
56.5685     63.832  -115.668
57.3914     64.067  -119.657
58.2261     64.278  -123.582
59.0730     64.464  -127.440
59.9323     64.634  -131.192
60.8040     64.803  -134.806
61.6884     64.986  -138.289
62.5857     65.183  -141.683
63.4960     65.385  -144.956
64.4196     65.584  -148.066
65.3566     65.775  -151.003
66.3073     65.952  -153.795
67.2717     66.112  -156.464
68.2502     66.259  -159.022
69.2429     66.405  -161.472
70.2501     66.568  -163.897
71.2719     66.752  -166.361
72.3086     66.941  -168.891
73.3603     67.119  -171.384
74.4274     67.298  -173.738
75.5099     67.473  -176.167
76.6083     67.612  -178.577
77.7226     67.762   179.188
78.8531     67.952   176.858
80.0000     68.173   174.374
81.1636     68.425   171.793
82.3442     68.699   169.159
83.5419     68.977   166.514
84.7570     69.239   163.912
85.9899     69.482   161.354
87.2406     69.710   158.823
88.5096     69.950   156.240
89.7970     70.200   153.409
91.1031     70.435   150.312
92.4282     70.633   147.132
93.7726     70.801   144.075
95.1366     70.961   141.215
96.5204     71.134   138.460
97.9243     71.320   135.710
99.3486     71.517   132.903
100.794     71.713   129.915
102.260     71.886   126.787
103.747     72.043   123.579
105.256     72.184   120.275
106.787     72.307   116.907
108.340     72.398   113.479
109.916     72.440   110.138
111.515     72.463   107.131
113.137     72.513   104.172
114.783     72.554   101.171
116.452     72.567    98.271
118.146     72.566    95.455
119.865     72.562    92.547
121.608     72.551    89.530
123.377     72.556    86.616
125.171     72.568    83.818
126.992     72.553    81.197
128.839     72.500    78.635
130.713     72.410    75.990
132.615     72.308    73.374
134.543     72.222    70.966
136.500     72.166    68.676
138.486     72.100    66.559
140.500     71.994    64.226
142.544     71.848    61.811
144.617     71.703    60.021
146.721     71.620    58.646
148.855     71.583    56.915
151.020     71.529    54.768
153.217     71.442    52.647
155.445     71.372    50.644
157.706     71.254    48.413
160.000     71.005    46.750
162.327     70.835    45.905
164.688     70.738    44.939
167.084     70.729    43.954
169.514     70.727    41.406
171.980     70.439    39.313
174.481     70.195    39.034
177.019     70.071    38.845
179.594     70.014    38.486
182.206     69.996    37.902
184.856     70.028    37.186
187.545     70.063    36.238
190.273     70.120    34.963
193.041     70.138    33.269
195.849     70.122    31.913
198.697     70.090    30.214
201.587     69.971    28.396
204.520     69.776    27.015
207.494     69.587    26.171
210.512     69.471    25.965
213.574     69.455    25.201
216.681     69.429    24.509
219.833     69.304    23.569
223.030     69.198    23.083
226.274     69.167    22.898
229.565     69.206    22.300
232.905     69.142    21.471
236.292     69.115    21.113
239.729     69.156    20.665
243.216     69.254    19.714
246.754     69.197    18.207
250.343     69.029    17.380
253.984     68.995    17.242
257.678     69.006    16.727
261.426     69.039    16.033
265.229     68.980    14.623
269.087     68.747    13.587
273.001     68.690    14.481
276.972     68.795    14.280
281.000     68.803    13.652
285.088     68.824    13.472
289.234     68.910    13.214
293.441     69.071    11.822
297.709     68.975    10.420
302.040     68.887     9.146
306.433     68.625     8.697
310.890     68.707     9.632
315.412     68.813     7.899
320.000     68.645     7.037
324.655     68.438     7.191
329.377     68.438     8.050
334.168     68.488     7.361
339.028     68.429     8.214
343.959     68.672     7.338
348.962     68.607     6.032
354.038     68.442     6.077
359.188     68.511     6.119
364.412     68.433     5.536
369.713     68.413     6.397
375.090     68.495     5.964
380.546     68.530     6.002
386.081     68.666     5.465
391.697     68.597     4.514
397.394     68.553     3.684
403.175     68.436     3.623
409.039     68.412     3.821
414.989     68.440     3.678
421.025     68.464     3.448
427.149     68.454     2.967
433.362     68.425     2.839
439.665     68.452     2.330
446.060     68.422     1.887
452.548     68.414     1.684
459.131     68.405     1.381
465.809     68.413     1.108
472.584     68.440     0.918
479.458     68.467     0.792
486.432     68.502     0.616
493.507     68.544     0.445
500.686     68.602     0.323
507.968     68.662     0.110
515.357     68.745    -0.091
522.853     68.834    -0.283
530.458     68.931    -0.551
538.174     69.040    -0.858
546.002     69.156    -1.273
553.943     69.272    -1.797
562.001     69.411    -2.416
570.175     69.539    -3.140
578.469     69.674    -4.009
586.883     69.805    -5.025
595.419     69.929    -6.093
604.080     70.038    -7.302
612.866     70.139    -8.632
621.780     70.224   -10.067
630.824     70.289   -11.567
640.000     70.341   -13.104
649.309     70.356   -14.583
658.753     70.356   -16.173
668.335     70.335   -17.675
678.056     70.284   -19.075
687.919     70.210   -20.404
697.925     70.126   -21.580
708.077     70.023   -22.530
718.376     69.919   -23.290
728.825     69.823   -23.813
739.426     69.735   -24.071
750.181     69.678   -24.147
761.093     69.657   -24.071
772.163     69.683   -23.855
783.394     69.757   -23.675
794.789     69.879   -23.649
806.349     70.050   -23.779
818.078     70.251   -24.219
829.977     70.470   -24.990
842.050     70.694   -26.148
854.298     70.909   -27.610
866.724     71.094   -29.371
879.330     71.247   -31.452
892.120     71.358   -33.698
905.097     71.423   -36.090
918.262     71.433   -38.476
931.618     71.391   -40.795
945.169     71.304   -42.958
958.917     71.175   -44.849
972.864     71.022   -46.405
987.015     70.864   -47.567
1001.37     70.718   -48.340
1015.94     70.610   -48.736
1030.71     70.566   -48.954
1045.71     70.590   -49.077
1060.92     70.684   -49.437
1076.35     70.828   -50.109
1092.00     71.002   -51.267
1107.89     71.173   -52.902
1124.00     71.307   -54.997
1140.35     71.388   -57.432
1156.94     71.392   -60.072
1173.77     71.311   -62.663
1190.84     71.142   -65.033
1208.16     70.906   -66.894
1225.73     70.626   -68.043
1243.56     70.348   -68.222
1261.65     70.142   -67.547
1280.00     70.097   -66.164
1298.62     70.236   -64.563
1317.51     70.567   -63.459
1336.67     71.031   -63.292
1356.11     71.566   -64.295
1375.84     72.079   -66.419
1395.85     72.527   -69.507
1416.15     72.874   -73.219
1436.75     73.107   -77.232
1457.65     73.223   -81.333
1478.85     73.248   -85.243
1500.36     73.196   -88.726
1522.19     73.116   -91.719
1544.33     73.044   -94.207
1566.79     73.022   -96.349
1589.58     73.063   -98.447
1612.70     73.168  -100.767
1636.16     73.295  -103.510
1659.95     73.408  -106.695
1684.10     73.458  -110.245
1708.60     73.432  -113.892
1733.45     73.327  -117.291
1758.66     73.167  -120.228
1784.24     73.008  -122.524
1810.19     72.916  -124.233
1836.52     72.933  -125.744
1863.24     73.059  -127.561
1890.34     73.247  -130.076
1917.83     73.426  -133.384
1945.73     73.522  -137.318
1974.03     73.505  -141.494
2002.74     73.371  -145.396
2031.87     73.171  -148.673
2061.43     72.980  -151.148
2091.41     72.880  -153.134
2121.83     72.899  -155.238
2152.69     72.989  -158.004
2184.01     73.051  -161.663
2215.77     72.995  -165.947
2248.00     72.772  -170.199
2280.70     72.411  -173.690
2313.87     72.006  -175.901
2347.53     71.707  -176.952
2381.68     71.614  -177.695
2416.32     71.681  -179.256
2451.46     71.750   177.861
2487.12     71.672   174.071
2523.30     71.375   170.400
2560.00     70.923   167.910
2597.24     70.491   167.115
2635.01     70.269   167.302
2673.34     70.287   166.984
2712.23     70.360   165.246
2751.68     70.289   162.475
2791.70     69.994   160.002
2832.31     69.600   158.995
2873.50     69.348   159.489
2915.30     69.367   159.993
2957.70     69.507   158.995
3000.72     69.513   156.644
3044.37     69.261   154.401
3088.65     68.875   153.823
3133.58     68.624   155.082
3179.16     68.680   156.553
3225.40     68.906   156.608
3272.31     69.043   155.369
3319.91     69.008   154.154
3368.20     68.932   153.994
3417.19     69.009   154.521
3466.89     69.264   154.359
3517.32     69.510   152.735
3568.48     69.552   150.468
3620.39     69.405   149.169
3673.05     69.336   149.504
3726.47     69.540   149.881
3780.67     69.836   148.541
3835.67     69.917   146.215
3891.46     69.827   144.877
3948.06     69.861   144.665
4005.49     70.052   143.576
4063.75     70.112   141.376
4122.86     69.989   140.026
4182.82     69.994   139.812
4243.66     70.168   138.597
4305.39     70.174   136.115
4368.01     69.956   134.489
4431.55     69.810   134.091
4496.01     69.742   133.243
4561.40     69.527   132.327
4627.75     69.266   132.919
4695.06     69.196   134.273
4763.35     69.232   135.149
4832.64     69.271   136.176
4902.93     69.469   137.493
4974.24     69.817   137.533
5046.60     70.021   136.183
5120.00     70.047   135.719
5194.47     70.301   136.062
5270.03     70.672   134.050
5346.68     70.651   131.126
5424.45     70.563   130.247
5503.35     70.711   128.269
5583.40     70.441   124.466
5664.61     69.778   124.004
5747.01     69.511   125.964
5830.60     69.372   126.405
5915.41     69.056   128.014
6001.45     69.116   130.949
6088.74     69.323   131.006
6177.30     69.069   131.493
6267.15     69.193   134.761
6358.31     69.503   134.222
6450.80     69.319   135.044
6544.62     69.696   136.812
6639.82     69.779   134.651
6736.40     69.590   135.772
6834.38     69.744   135.510
6933.79     69.363   135.507
7034.64     69.310   138.793
7136.96     69.441   139.890
7240.77     69.481   142.074
7346.09     69.804   142.679
7452.94     69.657   142.814
7561.35     69.826   145.388
7671.33     69.909   145.161
7782.91     69.995   147.482
7896.12     70.128   146.822
8010.97     70.015   149.157
8127.49     70.178   149.610
8245.71     70.068   152.523
8365.65     70.428   153.910
8487.33     70.516   155.786
8610.78     70.878   155.934
8736.03     70.779   156.974
8863.09     70.991   157.790
8992.01     70.856   160.357
9122.80     71.266   161.669
9255.50     71.271   164.422
9390.12     71.815   164.860
9526.70     71.921   166.675
9665.27     72.351   165.841
9805.86     72.379   167.244
9948.49     72.674   166.063
10093.2     72.582   167.495
10240.0     72.610   166.915
10388.9     72.602   170.231
10540.1     72.663   171.292
10693.4     73.013   174.175
10848.9     73.257   175.063
11006.7     73.678   176.229
11166.8     73.876   175.827
11329.2     74.196   175.463
11494.0     74.104   176.029
11661.2     74.301   175.916
11830.8     74.586   177.333
12002.9     74.586   176.187
12177.5     74.825   174.816
12354.6     74.695   174.733
12534.3     74.252   173.539
12716.6     73.960   174.891
12901.6     73.828   179.122
13089.2     73.890  -178.710
13279.6     73.928  -178.466
13472.8     73.784  -176.279
13668.8     73.695  -172.398
13867.6     73.869  -168.966
14069.3     74.343  -166.309
14273.9     74.881  -165.086
14481.5     75.145  -165.661
14692.2     75.232  -166.387
14905.9     75.440  -167.037
15122.7     75.525  -168.194
15342.7     75.378  -168.727
15565.8     75.184  -169.394
15792.2     74.839  -170.163
16021.9     74.474  -169.083
16255.0     74.261  -167.531
16491.4     74.026  -166.063
16731.3     73.873  -164.722
16974.7     73.646  -164.577
17221.6     73.288  -163.774
17472.1     72.964  -162.917
17726.2     72.472  -162.029
17984.0     71.955  -159.841
18245.6     71.472  -157.492
18511.0     70.980  -154.530
18780.2     70.533  -151.675
19053.4     69.967  -148.324
19330.5     69.467  -143.602
19611.7     69.158  -138.800
19897.0     68.911  -134.399
20186.4     68.654  -130.595
20480.0     68.224  -126.826
20777.9     67.608  -120.619
21080.1     67.723  -111.750
21386.7     68.057  -107.607
21697.8     68.243  -104.631
22013.4     68.230  -102.255
22333.6     68.116   -99.773
22658.4     67.925   -96.993
22988.0     67.726   -94.290
23322.4     67.430   -91.483
23661.6     67.039   -88.384
24005.8     66.663   -84.120
24355.0     66.341   -79.985
24709.2     66.052   -75.479
25068.6     65.746   -71.005
25433.2     65.567   -66.508
25803.2     65.299   -62.295
26178.5     65.071   -58.053
26559.3     64.857   -53.780
26945.6     64.556   -49.802
27337.5     64.312   -45.358
27735.2     64.043   -40.945
28138.6     63.855   -36.706
28547.9     63.600   -33.226
28963.1     63.211   -29.341
29384.4     62.827   -25.172
29811.8     62.511   -20.573
30245.4     62.147   -16.839
30685.3     61.690   -12.701
31131.7     61.277    -8.082
31584.5     60.890    -4.483
32043.9     60.276    -1.126
32510.0     59.601     3.098
32982.8     58.907     7.748
33462.6     58.218    12.630
33949.3     57.431    17.785
34443.1     56.649    23.492
34944.1     55.863    29.803
35452.4     55.085    36.166
35968.0     54.244    43.151
36491.2     53.433    51.309
37022.0     52.756    60.086
37560.5     52.133    69.601
38106.8     52.133    80.405
38661.1     52.530    84.419
39223.4     52.352    84.548
39793.9     51.376    84.062
