Freq[Hz]     dBSPL  Phase[Deg]
5.00000    -24.082  -130.593
5.07273    -23.708  -129.981
5.14651    -23.449  -129.415
5.22137    -23.514  -128.977
5.29732    -23.579  -128.540
5.37437    -23.644  -128.102
5.45254    -23.709  -127.665
5.53185    -24.024  -125.943
5.61231    -24.605  -122.863
5.69394    -25.187  -119.783
5.77676    -25.768  -116.703
5.86079    -26.341  -113.485
5.94604    -26.487  -102.150
6.03252    -26.633   -90.816
6.12027    -26.778   -79.481
6.20929    -26.924   -68.147
6.29961    -25.949   -60.754
6.39124    -24.726   -54.234
6.48420    -23.503   -47.714
6.57851    -22.280   -41.195
6.67420    -21.442   -39.576
6.77128    -20.666   -38.753
6.86977    -19.891   -37.930
6.96969    -19.194   -37.178
7.07107    -19.104   -36.972
7.17392    -19.013   -36.767
7.27827    -18.923   -36.561
7.38413    -19.234   -34.121
7.49154    -19.857   -29.955
7.60050    -20.480   -25.788
7.71105    -20.977   -19.765
7.82321    -20.925    -5.587
7.93701    -20.872     8.591
8.05245    -20.820    22.770
8.16958    -19.319    30.980
8.28841    -17.763    38.967
8.40896    -16.208    46.954
8.53128    -15.161    50.152
8.65537    -14.181    52.732
8.78126    -13.200    55.313
8.90899    -12.753    60.090
9.03857    -12.340    65.011
9.17004    -11.863    70.481
9.30342    -10.874    80.320
9.43874     -9.886    90.158
9.57603     -8.507    98.266
9.71532     -6.532   103.732
9.85663     -4.556   109.198
10.0000     -2.752   109.869
10.1455     -0.995   109.205
10.2930      0.622   107.791
10.4427      1.849   104.284
10.5946      3.076   100.777
10.7487      3.896    96.389
10.9051      4.635    91.826
11.0637      5.131    87.330
11.2246      5.370    82.905
11.3879      5.495    78.881
11.5535      5.202    76.314
11.7216      4.903    73.838
11.8921      4.255    76.694
12.0650      3.606    79.551
12.2405      3.727    88.775
12.4186      3.946    98.820
12.5992      5.332   105.247
12.7825      6.975   110.871
12.9684      8.603   110.202
13.1570     10.227   108.069
13.3484     11.415   102.557
13.5426     12.532    96.496
13.7395     13.136    88.633
13.9394     13.658    80.592
14.1421     13.700    71.732
14.3478     13.546    62.787
14.5565     12.971    53.662
14.7683     11.927    44.940
14.9831     10.520    36.531
15.2010      7.906    31.628
15.4221      4.793    32.619
15.6464      0.396    56.873
15.8740      0.574    84.672
16.1049      4.404   115.301
16.3392      7.413   113.560
16.5768      9.771   108.555
16.8179     11.227   100.564
17.0626     11.885    92.094
17.3107     12.182    84.031
17.5625     12.084    76.680
17.8180     11.521    71.917
18.0771     10.804    69.643
18.3401      9.998    70.192
18.6068      9.429    75.496
18.8775      9.425    82.885
19.1521      9.897    90.622
19.4306     10.822    97.607
19.7133     12.096   102.557
20.0000     13.521   105.710
20.2909     15.005   107.139
20.5860     16.468   106.850
20.8855     17.816   104.983
21.1893     18.899   101.943
21.4975     19.706    98.860
21.8102     20.268    96.555
22.1274     20.658    95.784
22.4492     21.020    97.021
22.7758     21.542   100.096
23.1071     22.369   103.902
23.4432     23.468   106.854
23.7841     24.638   108.103
24.1301     25.700   108.187
24.4811     26.601   107.926
24.8372     27.372   107.973
25.1984     28.089   108.605
25.5649     28.824   109.661
25.9368     29.598   110.733
26.3141     30.383   111.507
26.6968     31.132   111.969
27.0851     31.827   112.336
27.4791     32.487   112.823
27.8788     33.152   113.415
28.2843     33.847   113.880
28.6957     34.553   114.011
29.1131     35.238   113.804
29.5365     35.886   113.455
29.9661     36.511   113.193
30.4020     37.149   113.109
30.8442     37.838   113.076
31.2929     38.569   112.890
31.7480     39.316   112.506
32.2098     40.061   112.041
32.6783     40.805   111.694
33.1536     41.570   111.512
33.6359     42.364   111.398
34.1251     43.178   111.231
34.6215     43.987   111.002
35.1250     44.781   110.803
35.6359     45.565   110.708
36.1543     46.356   110.646
36.6802     47.148   110.496
37.2137     47.927   110.203
37.7550     48.693   109.825
38.3041     49.452   109.374
38.8613     50.217   108.780
39.4265     50.982   107.940
40.0000     51.730   106.908
40.5818     52.467   105.770
41.1721     53.207   104.495
41.7710     53.939   102.973
42.3785     54.621   101.213
42.9949     55.235    99.588
43.6203     55.824    98.389
44.2548     56.459    97.518
44.8985     57.152    96.419
45.5515     57.845    94.837
46.2141     58.487    92.950
46.8863     59.089    91.022
47.5683     59.681    89.062
48.2602     60.266    86.944
48.9621     60.829    84.694
49.6743     61.365    82.411
50.3968     61.877    80.151
51.1299     62.356    77.960
51.8736     62.800    75.892
52.6281     63.208    73.943
53.3936     63.573    72.080
54.1702     63.891    70.306
54.9581     64.168    68.604
55.7575     64.414    66.909
56.5685     64.636    65.193
57.3914     64.844    63.482
58.2261     65.050    61.818
59.0730     65.259    60.296
59.9323     65.475    59.041
60.8040     65.701    58.154
61.6884     65.938    57.662
62.5857     66.167    57.475
63.4960     66.370    57.547
64.4196     66.537    57.810
65.3566     66.667    58.175
66.3073     66.768    58.554
67.2717     66.849    58.906
68.2502     66.927    59.258
69.2429     67.022    59.669
70.2501     67.154    60.128
71.2719     67.318    60.618
72.3086     67.495    61.122
73.3603     67.664    61.723
74.4274     67.840    62.503
75.5099     68.022    63.256
76.6083     68.183    64.121
77.7226     68.366    65.327
78.8531     68.592    66.657
80.0000     68.833    68.052
81.1636     69.077    69.493
82.3442     69.307    70.892
83.5419     69.518    72.160
84.7570     69.709    73.292
85.9899     69.900    74.333
87.2406     70.109    75.393
88.5096     70.356    76.531
89.7970     70.627    77.638
91.1031     70.878    78.702
92.4282     71.074    79.834
93.7726     71.221    81.148
95.1366     71.346    82.648
96.5204     71.481    84.217
97.9243     71.632    85.769
99.3486     71.806    87.282
100.794     71.989    88.674
102.260     72.159    90.030
103.747     72.315    91.432
105.256     72.453    92.852
106.787     72.567    94.287
108.340     72.648    95.719
109.916     72.679    97.297
111.515     72.696    99.292
113.137     72.738   101.423
114.783     72.770   103.589
116.452     72.778   105.932
118.146     72.776   108.483
119.865     72.766   111.115
121.608     72.727   113.765
123.377     72.679   116.485
125.171     72.636   119.159
126.992     72.598   121.918
128.839     72.561   124.894
130.713     72.503   128.131
132.615     72.404   131.666
134.543     72.290   135.542
136.500     72.207   139.498
138.486     72.137   142.999
140.500     72.044   146.961
142.544     71.901   151.555
144.617     71.742   156.188
146.721     71.640   161.145
148.855     71.590   166.267
151.020     71.532   170.994
153.217     71.442   175.786
155.445     71.366  -179.303
157.706     71.242  -174.648
160.000     70.991  -168.851
162.327     70.825  -162.187
164.688     70.724  -156.192
167.084     70.705  -149.670
169.514     70.697  -144.174
171.980     70.404  -138.215
174.481     70.151  -131.048
177.019     70.027  -123.877
179.594     69.995  -116.266
182.206     70.006  -108.082
184.856     70.032   -99.974
187.545     70.049   -92.863
190.273     70.106   -85.604
193.041     70.137   -78.698
195.849     70.131   -71.412
198.697     70.109   -63.873
201.587     69.991   -56.479
204.520     69.804   -48.746
207.494     69.644   -40.398
210.512     69.536   -30.669
213.574     69.498   -21.728
216.681     69.492   -13.497
219.833     69.421    -4.671
223.030     69.329     5.349
226.274     69.301    15.450
229.565     69.359    25.145
232.905     69.301    34.560
236.292     69.309    44.359
239.729     69.385    54.945
243.216     69.460    64.847
246.754     69.429    73.821
250.343     69.322    84.405
253.984     69.306    95.692
257.678     69.350   106.531
261.426     69.388   117.806
265.229     69.348   128.059
269.087     69.167   138.906
273.001     69.122   151.724
276.972     69.242   163.275
281.000     69.273   174.889
285.088     69.344  -172.428
289.234     69.453  -159.579
293.441     69.588  -148.180
297.709     69.531  -137.087
302.040     69.494  -125.309
306.433     69.212  -112.369
310.890     69.321   -97.540
315.412     69.398   -85.332
320.000     69.237   -72.523
324.655     69.032   -58.491
329.377     69.025   -43.773
334.168     69.056   -29.588
339.028     69.004   -13.732
343.959     69.206     0.589
348.962     69.059    14.214
354.038     68.869    28.934
359.188     68.906    44.701
364.412     68.756    60.215
369.713     68.676    77.153
375.090     68.704    92.954
380.546     68.665   109.823
386.081     68.709   126.184
391.697     68.562   142.604
397.394     68.407   159.901
403.175     68.212   177.248
409.039     68.081  -164.317
414.989     68.013  -145.805
421.025     67.937  -127.331
427.149     67.859  -108.947
433.362     67.728   -90.155
439.665     67.653   -70.644
446.060     67.534   -51.108
452.548     67.458   -31.252
459.131     67.363   -10.880
465.809     67.296    10.160
472.584     67.238    31.177
479.458     67.208    52.308
486.432     67.142    74.075
493.507     67.108    96.237
500.686     67.077   118.958
507.968     67.064   141.687
515.357     67.065   164.546
522.853     67.055  -172.242
530.458     67.070  -148.335
538.174     67.072  -124.453
546.002     67.085  -100.670
553.943     67.101   -76.416
562.001     67.130   -51.466
570.175     67.148   -26.200
578.469     67.186    -0.286
586.883     67.222    25.597
595.419     67.222    51.460
604.080     67.268    77.684
612.866     67.301   104.561
621.780     67.318   131.972
630.824     67.333   159.842
640.000     67.360  -172.334
649.309     67.391  -144.471
658.753     67.397  -116.018
668.335     67.411   -86.555
678.056     67.403   -57.116
687.919     67.417   -27.144
697.925     67.414     3.486
708.077     67.406    34.039
718.376     67.395    65.174
728.825     67.373    96.865
739.426     67.358   129.057
750.181     67.340   161.867
761.093     67.308  -164.710
772.163     67.268  -131.379
783.394     67.238   -97.440
794.789     67.194   -62.417
806.349     67.157   -27.315
818.078     67.101     8.296
829.977     67.051    44.478
842.050     66.988    81.204
854.298     66.923   118.486
866.724     66.860   155.733
879.330     66.782  -165.798
892.120     66.689  -126.845
905.097     66.596   -87.339
918.262     66.488   -47.204
931.618     66.371    -6.547
945.169     66.239    34.750
958.917     66.077    76.679
972.864     65.910   119.078
987.015     65.713   162.238
1001.37     65.496  -153.453
1015.94     65.266  -108.428
1030.71     65.016   -63.187
1045.71     64.727   -16.562
1060.92     64.426    31.325
1076.35     64.104    79.716
1092.00     63.786   128.967
1107.89     63.471   179.693
1124.00     63.198  -128.327
1140.35     62.953   -75.349
1156.94     62.783   -20.685
1173.77     62.727    34.736
1190.84     62.788    90.913
1208.16     62.959   147.487
1225.73     63.258  -155.078
1243.56     63.660   -97.086
1261.65     64.106   -39.314
1280.00     64.580    18.328
1298.62     65.075    75.771
1317.51     65.527   133.628
1336.67     65.953  -167.918
1356.11     66.326  -109.438
1375.84     66.628   -50.230
1395.85     66.867     9.822
1416.15     67.003    70.210
1436.75     67.066   131.009
1457.65     67.046  -167.180
1478.85     66.936  -104.104
1500.36     66.740   -40.384
1522.19     66.458    24.715
1544.33     66.104    91.346
1566.79     65.664   159.472
1589.58     65.195  -130.666
1612.70     64.684   -59.577
1636.16     64.151    13.229
1659.95     63.649    87.710
1684.10     63.176   163.871
1708.60     62.762  -118.573
1733.45     62.404   -40.190
1758.66     62.036    40.158
1784.24     61.704   121.480
1810.19     61.378  -156.351
1836.52     61.046   -72.054
1863.24     60.741    13.708
1890.34     60.492   101.136
1917.83     60.344  -170.107
1945.73     60.336   -80.372
1974.03     60.419    10.784
2002.74     60.552   102.408
2031.87     60.659  -165.820
2061.43     60.698   -73.556
2091.41     60.633    20.298
2121.83     60.434   115.965
2152.69     60.139  -147.066
2184.01     59.791   -47.340
2215.77     59.527    55.192
2248.00     59.439   159.716
2280.70     59.548   -94.681
2313.87     59.832    11.623
2347.53     60.181   118.430
2381.68     60.469  -134.783
2416.32     60.639   -26.866
2451.46     60.642    82.643
2487.12     60.525  -165.565
2523.30     60.364   -51.258
2560.00     60.261    65.762
2597.24     60.290  -175.646
2635.01     60.470   -55.617
2673.34     60.755    65.206
2712.23     61.022  -173.330
2751.68     61.187   -50.333
2791.70     61.203    74.093
2832.31     61.070  -159.490
2873.50     60.832   -30.611
2915.30     60.576   100.964
2957.70     60.384  -124.403
3000.72     60.299    12.125
3044.37     60.306   149.957
3088.65     60.316   -70.479
3133.58     60.248    70.311
3179.16     60.050  -146.685
3225.40     59.709    -0.850
3272.31     59.314   147.601
3319.91     58.945   -60.495
3368.20     58.700    94.541
3417.19     58.604  -108.746
3466.89     58.624    49.724
3517.32     58.672  -150.045
3568.48     58.626    11.204
3620.39     58.399   174.401
3673.05     57.993   -19.250
3726.47     57.447   150.717
3780.67     56.901   -35.245
3835.67     56.572   142.482
3891.46     56.567   -37.022
3948.06     56.743   144.053
4005.49     56.911   -34.541
4063.75     56.826   148.990
4122.86     56.376   -25.402
4182.82     55.599   164.217
4243.66     54.712     0.580
4305.39     54.216  -157.082
4368.01     54.428    48.167
4431.55     55.062  -107.728
4496.01     55.483    95.282
4561.40     55.374   -60.611
4627.75     54.717   147.940
4695.06     53.859     3.671
4763.35     53.357  -134.573
4832.64     53.368    88.897
4902.93     53.294   -47.014
4974.24     52.766   179.815
5046.60     51.875    52.897
5120.00     51.318   -66.948
5194.47     51.438   176.316
5270.03     51.738    59.045
5346.68     51.763   -56.364
5424.45     51.613  -167.063
5503.35     51.571    85.809
5583.40     51.626   -18.660
5664.61     51.683  -120.219
5747.01     51.623   140.612
5830.60     51.297    43.832
5915.41     50.671   -47.771
6001.45     49.970  -134.531
6088.74     49.378   142.736
6177.30     48.554    63.112
6267.15     47.263   -12.221
6358.31     45.715   -79.166
6450.80     44.680  -140.376
6544.62     43.846   156.674
6639.82     41.373    94.270
6736.40     36.290    55.760
6834.38     36.713    46.578
6933.79     39.900     2.626
7034.64     39.184   -48.643
7136.96     37.788   -76.056
7240.77     40.483  -101.962
7346.09     42.567  -147.424
7452.94     42.199   166.819
7561.35     40.044   136.285
7671.33     38.463   119.541
7782.91     36.882    98.941
7896.12     32.292    75.397
8010.97     21.177   -58.101
8127.49     17.463  -140.932
8245.71     24.928   147.518
8365.65     30.287   101.217
8487.33     31.178   102.280
8610.78     32.134   155.106
8736.03     35.564  -162.977
8863.09     36.208  -122.596
8992.01     35.303   -66.150
9122.80     34.256     1.600
9255.50     34.992    75.838
9390.12     35.321   139.219
9526.70     33.446  -150.473
9665.27     31.119   -66.752
9805.86     31.379    34.436
9948.49     33.739   128.056
10093.2     35.361  -127.644
10240.0     38.064   -16.630
10388.9     39.418    93.119
10540.1     40.461  -147.018
10693.4     40.511   -26.320
10848.9     39.195   106.714
11006.7     38.085  -109.079
11166.8     37.446    49.938
11329.2     37.734  -143.107
11494.0     38.902    27.666
11661.2     39.557  -156.910
11830.8     39.608    21.310
12002.9     38.008  -146.029
12177.5     37.397    55.613
12354.6     36.310  -104.073
12534.3     34.162   104.702
12716.6     33.930   -35.349
12901.6     33.862  -172.719
13089.2     34.366    63.055
13279.6     34.512   -59.602
13472.8     32.937  -178.373
13668.8     29.011    85.565
13867.6     26.406     3.888
14069.3     27.004   -39.425
14273.9     31.122  -102.479
14481.5     32.596  -160.637
14692.2     30.816   161.310
14905.9     30.689   142.524
15122.7     31.231   129.675
15342.7     28.122   101.400
15565.8     20.973    95.592
15792.2     21.219    40.417
16021.9     24.716  -123.368
16255.0     23.532    71.404
16491.4     28.399   117.839
16731.3     27.982   163.833
16974.7     25.956  -137.334
17221.6     23.918    31.866
17472.1     18.659    52.777
17726.2     16.212   171.686
17984.0     14.785    23.527
18245.6     18.358   164.343
18511.0     20.209  -119.018
18780.2     21.533   170.814
19053.4     19.904   153.383
19330.5     20.219    32.067
19611.7     16.578   -66.446
19897.0     17.061    -8.084
20186.4     16.511  -120.635
20480.0     18.927    27.665
20777.9     17.940   130.626
21080.1     17.693    24.367
21386.7     15.385  -141.187
21697.8     17.162  -171.522
22013.4     15.736  -118.849
22333.6     14.536    50.483
22658.4     16.064   -51.566
22988.0     16.743    -0.487
23322.4     16.723    34.551
23661.6     17.326   147.561
24005.8     16.801   157.302
24355.0     16.597    -2.192
24709.2     17.260   -16.121
25068.6     18.267   -97.055
25433.2     16.815   149.311
25803.2     16.463  -122.030
26178.5     16.575    39.067
26559.3     16.445  -131.124
26945.6     16.177  -144.796
27337.5     16.269   -99.415
27735.2     16.833   144.911
28138.6     17.717    43.007
28547.9     17.302  -125.714
28963.1     17.575   -33.177
29384.4     17.252  -109.762
29811.8     17.600    52.039
30245.4     16.971  -167.287
30685.3     16.966   -95.461
31131.7     18.545    40.820
31584.5     17.698   109.698
32043.9     20.012    91.981
32510.0     17.786    71.648
32982.8     17.899   -60.821
33462.6     18.968  -174.477
33949.3     19.615    39.142
34443.1     18.430   153.484
34944.1     18.577   162.353
35452.4     19.102   119.644
35968.0     17.572   -53.880
36491.2     18.626    59.561
37022.0     19.077  -175.809
37560.5     19.120  -110.391
38106.8     18.574   -99.189
38661.1     18.777    22.115
39223.4     18.055   -66.529
39793.9     17.707   -97.751
