Freq[Hz]     dBSPL  Phase[Deg]
5.00000    -24.196  -130.293
5.07273    -23.820  -129.688
5.14651    -23.561  -129.129
5.22137    -23.623  -128.697
5.29732    -23.686  -128.266
5.37437    -23.749  -127.835
5.45254    -23.812  -127.403
5.53185    -24.125  -125.687
5.61231    -24.703  -122.611
5.69394    -25.281  -119.535
5.77676    -25.859  -116.459
5.86079    -26.429  -113.245
5.94604    -26.571  -101.910
6.03252    -26.713   -90.576
6.12027    -26.855   -79.241
6.20929    -26.996   -67.907
6.29961    -26.017   -60.509
6.39124    -24.790   -53.984
6.48420    -23.562   -47.459
6.57851    -22.334   -40.934
6.67420    -21.491   -39.303
6.77128    -20.710   -38.466
6.86977    -19.929   -37.630
6.96969    -19.228   -36.865
7.07107    -19.131   -36.637
7.17392    -19.035   -36.410
7.27827    -18.938   -36.182
7.38413    -19.244   -33.715
7.49154    -19.861   -29.517
7.60050    -20.478   -25.319
7.71105    -20.970   -19.262
7.82321    -20.912    -5.041
7.93701    -20.853     9.179
8.05245    -20.795    23.400
8.16958    -19.288    31.663
8.28841    -17.727    39.704
8.40896    -16.166    47.744
8.53128    -15.115    51.006
8.65537    -14.130    53.651
8.78126    -13.145    56.295
8.90899    -12.693    61.147
9.03857    -12.277    66.143
9.17004    -11.797    71.689
9.30342    -10.807    81.611
9.43874     -9.817    91.533
9.57603     -8.437    99.729
9.71532     -6.461   105.286
9.85663     -4.486   110.844
10.0000     -2.683   111.611
10.1455     -0.929   111.043
10.2930      0.685   109.727
10.4427      1.907   106.320
10.5946      3.130   102.913
10.7487      3.943    98.624
10.9051      4.675    94.160
11.0637      5.162    89.761
11.2246      5.391    85.432
11.3879      5.504    81.500
11.5535      5.199    79.020
11.7216      4.887    76.630
11.8921      4.222    79.560
12.0650      3.558    82.489
12.2405      3.660    91.771
12.4186      3.861   101.871
12.5992      5.227   108.336
12.7825      6.851   113.993
12.9684      8.458   113.337
13.1570     10.061   111.212
13.3484     11.227   105.683
13.5426     12.322    99.601
13.7395     12.906    91.687
13.9394     13.408    83.592
14.1421     13.430    74.651
14.3478     13.258    65.617
14.5565     12.668    56.383
14.7683     11.610    47.540
14.9831     10.191    38.999
15.2010      7.568    33.948
15.4221      4.449    34.787
15.6464      0.051    58.881
15.8740      0.230    86.517
16.1049      4.066   116.983
16.3392      7.085   115.085
16.5768      9.455   109.929
16.8179     10.927   101.797
17.0626     11.606    93.207
17.3107     11.927    85.038
17.5625     11.855    77.600
17.8180     11.322    72.784
18.0771     10.635    70.483
18.3401      9.861    71.028
18.6068      9.324    76.370
18.8775      9.353    83.830
19.1521      9.857    91.669
19.4306     10.813    98.786
19.7133     12.114   103.907
20.0000     13.563   107.262
20.2909     15.066   108.916
20.5860     16.544   108.873
20.8855     17.900   107.271
21.1893     18.985   104.506
21.4975     19.788   101.699
21.8102     20.338    99.665
22.1274     20.710    99.149
22.4492     21.049   100.617
22.7758     21.541   103.892
23.1071     22.333   107.858
23.4432     23.393   110.924
23.7841     24.523   112.228
24.1301     25.542   112.312
24.4811     26.405   111.995
24.8372     27.140   111.930
25.1984     27.827   112.402
25.5649     28.537   113.254
25.9368     29.296   114.090
26.3141     30.076   114.605
26.6968     30.830   114.802
27.0851     31.540   114.912
27.4791     32.225   115.165
27.8788     32.926   115.565
28.2843     33.665   115.894
28.6957     34.421   115.955
29.1131     35.160   115.755
29.5365     35.863   115.494
29.9661     36.542   115.404
30.4020     37.228   115.572
30.8442     37.956   115.872
31.2929     38.716   116.072
31.7480     39.482   116.112
32.2098     40.231   116.089
32.6783     40.964   116.174
33.1536     41.705   116.394
33.6359     42.466   116.635
34.1251     43.238   116.751
34.6215     44.000   116.727
35.1250     44.745   116.658
35.6359     45.482   116.610
36.1543     46.229   116.529
36.6802     46.986   116.308
37.2137     47.739   115.909
37.7550     48.487   115.411
38.3041     49.238   114.842
38.8613     50.001   114.151
39.4265     50.769   113.245
40.0000     51.524   112.184
40.5818     52.268   111.051
41.1721     53.014   109.812
41.7710     53.750   108.343
42.3785     54.431   106.642
42.9949     55.044   105.069
43.6203     55.630   103.910
44.2548     56.264   103.061
44.8985     56.958   101.974
45.5515     57.654   100.404
46.2141     58.306    98.542
46.8863     58.920    96.670
47.5683     59.525    94.805
48.2602     60.121    92.826
48.9621     60.689    90.749
49.6743     61.222    88.653
50.3968     61.723    86.570
51.1299     62.185    84.518
51.8736     62.608    82.529
52.6281     62.997    80.589
53.3936     63.350    78.675
54.1702     63.668    76.817
54.9581     63.960    75.043
55.7575     64.234    73.343
56.5685     64.493    71.734
57.3914     64.736    70.266
58.2261     64.965    68.976
59.0730     65.175    67.917
59.9323     65.363    67.133
60.8040     65.536    66.634
61.6884     65.698    66.358
62.5857     65.847    66.176
63.4960     65.980    66.029
64.4196     66.102    65.903
65.3566     66.221    65.794
66.3073     66.347    65.726
67.2717     66.486    65.769
68.2502     66.640    66.029
69.2429     66.812    66.587
70.2501     67.004    67.407
71.2719     67.200    68.385
72.3086     67.377    69.397
73.3603     67.519    70.428
74.4274     67.650    71.490
75.5099     67.784    72.351
76.6083     67.906    73.173
77.7226     68.069    74.239
78.8531     68.296    75.409
80.0000     68.558    76.696
81.1636     68.835    78.136
82.3442     69.103    79.660
83.5419     69.342    81.167
84.7570     69.549    82.601
85.9899     69.739    83.947
87.2406     69.934    85.263
88.5096     70.165    86.586
89.7970     70.419    87.817
91.1031     70.658    88.964
92.4282     70.847    90.157
93.7726     70.991    91.513
95.1366     71.121    93.042
96.5204     71.272    94.652
97.9243     71.447    96.304
99.3486     71.648    98.016
100.794     71.851    99.711
102.260     72.024   101.417
103.747     72.167   103.135
105.256     72.283   104.775
106.787     72.380   106.339
108.340     72.452   107.861
109.916     72.485   109.556
111.515     72.506   111.723
113.137     72.547   114.061
114.783     72.568   116.421
116.452     72.562   118.896
118.146     72.550   121.496
119.865     72.546   124.131
121.608     72.533   126.837
123.377     72.518   129.771
125.171     72.496   132.816
126.992     72.451   135.971
128.839     72.389   139.207
130.713     72.313   142.543
132.615     72.220   146.153
134.543     72.122   150.229
136.500     72.044   154.474
138.486     71.966   158.209
140.500     71.864   162.342
142.544     71.722   167.087
144.617     71.572   171.886
146.721     71.479   177.042
148.855     71.440  -177.583
151.020     71.388  -172.562
153.217     71.293  -167.481
155.445     71.208  -162.346
157.706     71.083  -157.512
160.000     70.837  -151.504
162.327     70.676  -144.618
164.688     70.584  -138.413
167.084     70.577  -131.604
169.514     70.568  -125.761
171.980     70.270  -119.562
174.481     70.032  -112.191
177.019     69.926  -104.610
179.594     69.868   -96.492
182.206     69.824   -88.175
184.856     69.858   -80.186
187.545     69.925   -72.856
190.273     69.992   -65.087
193.041     69.999   -57.898
195.849     70.001   -50.506
198.697     70.008   -42.678
201.587     69.902   -34.860
204.520     69.710   -26.739
207.494     69.540   -18.119
210.512     69.445    -8.178
213.574     69.435     1.193
216.681     69.415     9.937
219.833     69.312    18.998
223.030     69.232    29.191
226.274     69.213    39.674
229.565     69.266    49.655
232.905     69.223    59.362
236.292     69.231    69.536
239.729     69.311    80.351
243.216     69.422    90.612
246.754     69.394   100.160
250.343     69.267   111.121
253.984     69.254   122.732
257.678     69.289   133.921
261.426     69.341   145.385
265.229     69.343   156.138
269.087     69.142   167.561
273.001     69.091  -179.412
276.972     69.241  -167.421
281.000     69.260  -155.248
285.088     69.317  -142.242
289.234     69.435  -129.086
293.441     69.594  -117.267
297.709     69.536  -105.653
302.040     69.500   -93.556
306.433     69.236   -80.136
310.890     69.347   -64.874
315.412     69.443   -52.128
320.000     69.270   -38.803
324.655     69.062   -24.379
329.377     69.074    -9.295
334.168     69.111     5.595
339.028     69.032    21.820
343.959     69.249    36.468
348.962     69.145    50.594
354.038     68.928    66.036
359.188     68.977    82.022
364.412     68.835    98.202
369.713     68.761   115.585
375.090     68.784   131.906
380.546     68.757   149.272
386.081     68.796   166.096
391.697     68.659  -176.989
397.394     68.528  -159.210
403.175     68.313  -141.171
409.039     68.203  -122.538
414.989     68.144  -103.262
421.025     68.079   -84.328
427.149     67.977   -65.417
433.362     67.876   -46.227
439.665     67.811   -26.128
446.060     67.691    -5.919
452.548     67.606    14.329
459.131     67.525    35.393
465.809     67.433    56.971
472.584     67.365    78.543
479.458     67.310   100.008
486.432     67.275   122.315
493.507     67.238   145.140
500.686     67.180   168.563
507.968     67.158  -168.093
515.357     67.114  -144.688
522.853     67.097  -120.792
530.458     67.079   -96.188
538.174     67.048   -71.702
546.002     67.031   -47.248
553.943     67.029   -22.218
562.001     67.001     3.453
570.175     66.993    29.586
578.469     66.979    56.298
586.883     66.973    83.061
595.419     66.948   109.746
604.080     66.948   137.019
612.866     66.919   164.866
621.780     66.917  -166.798
630.824     66.897  -137.637
640.000     66.875  -108.675
649.309     66.854   -79.713
658.753     66.847   -50.116
668.335     66.819   -19.270
678.056     66.791    11.468
687.919     66.782    42.806
697.925     66.768    74.838
708.077     66.740   106.788
718.376     66.727   139.356
728.825     66.713   172.437
739.426     66.703  -153.783
750.181     66.681  -119.562
761.093     66.682   -84.753
772.163     66.681   -49.931
783.394     66.677   -14.558
794.789     66.662    21.929
806.349     66.665    58.406
818.078     66.640    95.362
829.977     66.642   132.876
842.050     66.618   171.010
854.298     66.585  -150.412
866.724     66.553  -111.783
879.330     66.509   -72.034
892.120     66.449   -31.738
905.097     66.375     9.141
918.262     66.290    50.591
931.618     66.185    92.654
945.169     66.063   135.249
958.917     65.945   178.464
972.864     65.792  -137.593
987.015     65.625   -93.124
1001.37     65.433   -47.357
1015.94     65.205    -1.029
1030.71     64.979    45.487
1045.71     64.704    93.224
1060.92     64.398   142.249
1076.35     64.074  -168.540
1092.00     63.730  -118.459
1107.89     63.321   -66.697
1124.00     62.882   -14.086
1140.35     62.451    39.805
1156.94     62.002    95.689
1173.77     61.605   152.970
1190.84     61.289  -148.286
1208.16     61.147   -88.189
1225.73     61.204   -26.665
1243.56     61.477    35.972
1261.65     61.960    98.220
1280.00     62.564   160.062
1298.62     63.247  -139.004
1317.51     63.922   -77.862
1336.67     64.551   -16.778
1356.11     65.100    44.038
1375.84     65.555   105.272
1395.85     65.900   167.122
1416.15     66.124  -130.793
1436.75     66.226   -68.331
1457.65     66.206    -4.829
1478.85     66.055    59.992
1500.36     65.783   125.578
1522.19     65.395  -167.289
1544.33     64.903   -98.471
1566.79     64.348   -27.801
1589.58     63.748    44.892
1612.70     63.147   118.932
1636.16     62.578  -165.223
1659.95     62.083   -87.994
1684.10     61.640    -9.584
1708.60     61.205    69.501
1733.45     60.731   148.879
1758.66     60.114  -130.431
1784.24     59.263   -48.693
1810.19     58.192    34.311
1836.52     56.793   120.783
1863.24     55.126  -148.124
1890.34     53.567   -50.806
1917.83     52.764    52.567
1945.73     53.069   157.527
1974.03     54.104  -101.067
2002.74     55.037    -3.538
2031.87     55.708    91.777
2061.43     56.000  -172.651
2091.41     55.870   -74.653
2121.83     55.510    26.801
2152.69     55.140   131.331
2184.01     55.044  -120.017
2215.77     55.415    -9.256
2248.00     56.186   100.718
2280.70     57.065  -150.762
2313.87     57.834   -42.558
2347.53     58.348    66.055
2381.68     58.655   175.420
2416.32     58.724   -72.849
2451.46     58.688    41.411
2487.12     58.648   158.754
2523.30     58.701   -81.279
2560.00     58.970    40.516
2597.24     59.377   162.592
2635.01     59.827   -75.046
2673.34     60.201    47.744
2712.23     60.368   171.272
2751.68     60.275   -63.165
2791.70     59.916    64.729
2832.31     59.342  -164.214
2873.50     58.703   -29.274
2915.30     58.199   109.475
2957.70     58.003  -108.610
3000.72     58.041    33.969
3044.37     58.164   176.790
3088.65     58.135   -39.360
3133.58     57.880   105.961
3179.16     57.417  -105.814
3225.40     56.801    45.970
3272.31     56.124  -159.475
3319.91     55.508    -1.031
3368.20     54.939   160.877
3417.19     54.547   -34.942
3466.89     54.336   131.551
3517.32     54.231   -60.215
3568.48     53.967   108.655
3620.39     53.412   -80.064
3673.05     52.572    96.381
3726.47     51.838   -81.101
3780.67     51.769   106.361
3835.67     52.361   -66.068
3891.46     53.150   119.858
3948.06     53.579   -55.219
4005.49     53.452   131.028
4063.75     52.879   -37.523
4122.86     52.110   160.052
4182.82     51.677     4.056
4243.66     52.042  -148.003
4305.39     52.911    58.758
4368.01     53.759   -96.294
4431.55     54.222   108.203
4496.01     54.004   -45.606
4561.40     53.060   165.102
4627.75     51.641    23.696
4695.06     50.575  -108.368
4763.35     50.296   122.823
4832.64     50.128    -7.098
4902.93     49.443  -133.951
4974.24     48.449   106.976
5046.60     47.837    -4.501
5120.00     48.178  -112.782
5194.47     48.947   138.180
5270.03     49.683    28.402
5346.68     50.183   -80.182
5424.45     50.399   173.261
5503.35     50.263    68.660
5583.40     49.621   -32.215
5664.61     48.662  -126.773
5747.01     47.970   143.692
5830.60     47.483    54.311
5915.41     46.640   -33.804
6001.45     45.147  -119.463
6088.74     43.677   156.044
6177.30     41.993    69.883
6267.15     40.288   -20.905
6358.31     39.192  -112.912
6450.80     39.676   164.853
6544.62     40.906    98.594
6639.82     42.850    43.529
6736.40     44.859   -10.392
6834.38     45.418   -65.137
6933.79     43.597  -110.786
7034.64     41.266  -133.830
7136.96     41.196  -157.032
7240.77     38.833   159.131
7346.09     30.553    66.769
7452.94     34.036   -50.874
7561.35     37.434   -72.800
7671.33     39.997   -70.546
7782.91     41.838   -76.112
7896.12     40.824   -74.807
8010.97     38.916   -56.355
8127.49     35.720   -21.383
8245.71     36.510    41.560
8365.65     39.183    87.028
8487.33     41.113   139.499
8610.78     43.507  -171.443
8736.03     44.375  -119.674
8863.09     44.687   -57.852
8992.01     44.757    15.197
9122.80     45.797    95.303
9255.50     46.850   172.593
9390.12     46.850  -107.521
9526.70     45.569   -18.861
9665.27     44.009    81.315
9805.86     42.558  -168.387
9948.49     40.641   -47.241
10093.2     40.590    94.561
10240.0     42.142  -128.451
10388.9     44.114    14.023
10540.1     45.821   149.635
10693.4     46.245   -67.941
10848.9     45.378    79.793
11006.7     43.478  -115.000
11166.8     42.223    61.474
11329.2     41.014  -111.185
11494.0     39.658    88.654
11661.2     40.723   -58.651
11830.8     41.689   152.060
12002.9     42.814     7.513
12177.5     43.301  -133.700
12354.6     42.993    93.472
12534.3     41.783   -27.950
12716.6     40.124  -137.387
12901.6     38.382   132.281
13089.2     38.146    51.590
13279.6     38.672   -27.887
13472.8     38.282  -102.965
13668.8     35.417  -168.293
13867.6     33.218   160.059
14069.3     33.966   135.023
14273.9     36.108    96.815
14481.5     35.790    66.997
14692.2     34.126    43.636
14905.9     32.653    44.859
15122.7     31.401    67.573
15342.7     33.228    92.384
15565.8     33.329   116.634
15792.2     33.159   159.248
16021.9     33.750  -159.841
16255.0     31.490  -109.795
16491.4     26.375   -43.832
16731.3     20.579   132.189
16974.7     20.613  -173.998
17221.6     20.945   -14.296
17472.1     24.136   125.501
17726.2     25.376  -118.939
17984.0     21.597   -30.916
18245.6     19.525   140.202
18511.0     22.051    85.064
18780.2     24.538   102.202
19053.4     25.775   -28.354
19330.5     25.183   178.059
19611.7     24.435    38.853
19897.0     21.382   -92.895
20186.4     19.175    62.581
20480.0     15.565  -167.381
20777.9     16.265    85.176
21080.1     17.475   -55.002
21386.7     18.620  -173.776
21697.8     19.232  -129.556
22013.4     18.814   169.883
22333.6     16.413   107.255
22658.4     16.304   167.277
22988.0     18.047   -93.834
23322.4     16.423  -137.833
23661.6     16.293   166.832
24005.8     17.960   121.556
24355.0     16.875    -7.883
24709.2     18.029    52.278
25068.6     16.512    89.344
25433.2     17.160     8.729
25803.2     16.218    37.495
26178.5     15.732   127.281
26559.3     15.695   -93.228
26945.6     17.407  -130.939
27337.5     18.062  -102.092
27735.2     17.308    12.113
28138.6     18.218   -75.797
28547.9     17.469   177.008
28963.1     17.714   142.890
29384.4     18.004    56.079
29811.8     18.102   -42.512
30245.4     17.992   -74.334
30685.3     17.044   101.192
31131.7     16.748  -117.403
31584.5     17.671    98.961
32043.9     18.175  -144.599
32510.0     16.912   -63.150
32982.8     16.640    69.560
33462.6     18.966   130.576
33949.3     17.728    44.153
34443.1     17.261   -32.362
34944.1     18.760    17.381
35452.4     17.383    78.704
35968.0     17.630     8.643
36491.2     19.013    54.397
37022.0     19.124  -140.865
37560.5     19.148  -162.115
38106.8     18.999   104.982
38661.1     19.202    34.961
39223.4     18.911    36.330
39793.9     18.544   -39.598
