Freq[Hz]     dBSPL  Phase[Deg]
5.00000    -25.007  -147.931
5.07273    -24.633  -147.570
5.14651    -24.374  -147.260
5.22137    -24.438  -147.094
5.29732    -24.503  -146.928
5.37437    -24.567  -146.762
5.45254    -24.632  -146.596
5.53185    -24.947  -145.156
5.61231    -25.527  -142.369
5.69394    -26.107  -139.582
5.77676    -26.688  -136.795
5.86079    -27.260  -133.871
5.94604    -27.405  -122.850
6.03252    -27.549  -111.830
6.12027    -27.693  -100.810
6.20929    -27.837   -89.790
6.29961    -26.861   -82.728
6.39124    -25.636   -76.543
6.48420    -24.411   -70.359
6.57851    -23.186   -64.174
6.67420    -22.345   -62.908
6.77128    -21.566   -62.440
6.86977    -20.787   -61.972
6.96969    -20.088   -61.578
7.07107    -19.993   -61.746
7.17392    -19.899   -61.915
7.27827    -19.804   -62.083
7.38413    -20.111   -60.027
7.49154    -20.729   -56.252
7.60050    -21.347   -52.478
7.71105    -21.839   -46.849
7.82321    -21.780   -33.078
7.93701    -21.720   -19.306
8.05245    -21.661    -5.535
8.16958    -20.152     2.255
8.28841    -18.589     9.821
8.40896    -17.026    17.387
8.53128    -15.970    20.154
8.65537    -14.981    22.302
8.78126    -13.991    24.449
8.90899    -13.533    28.785
9.03857    -13.111    33.263
9.17004    -12.624    38.290
9.30342    -11.625    47.677
9.43874    -10.626    57.064
9.57603     -9.236    64.718
9.71532     -7.248    69.726
9.85663     -5.261    74.733
10.0000     -3.445    74.941
10.1455     -1.676    73.812
10.2930     -0.048    71.932
10.4427      1.191    67.954
10.5946      2.429    63.977
10.7487      3.261    59.114
10.9051      4.011    54.074
11.0637      4.518    49.098
11.2246      4.767    44.190
11.3879      4.901    39.680
11.5535      4.618    36.622
11.7216      4.328    33.654
11.8921      3.687    36.009
12.0650      3.045    38.364
12.2405      3.172    47.075
12.4186      3.397    56.605
12.5992      4.786    62.504
12.7825      6.434    67.598
12.9684      8.064    66.384
13.1570      9.691    63.701
13.3484     10.879    57.620
13.5426     11.996    50.987
13.7395     12.599    42.527
13.9394     13.119    33.885
14.1421     13.158    24.399
14.3478     13.001    14.819
14.5565     12.423     5.038
14.7683     11.376    -4.357
14.9831      9.966   -13.452
15.2010      7.349   -19.068
15.4221      4.234   -18.799
15.6464     -0.163     4.710
15.8740      0.014    31.748
16.1049      3.845    61.606
16.3392      6.857    59.072
16.5768      9.218    53.265
16.8179     10.679    44.462
17.0626     11.346    35.169
17.3107     11.651    26.277
17.5625     11.563    18.093
17.8180     11.012    12.494
18.0771     10.308     9.384
18.3401      9.516     9.097
18.6068      8.960    13.570
18.8775      8.971    20.131
19.1521      9.457    27.045
19.4306     10.394    33.211
19.7133     11.679    37.347
20.0000     13.112    39.690
20.2909     14.602    40.307
20.5860     16.068    39.203
20.8855     17.414    36.515
21.1893     18.491    32.639
21.4975     19.287    28.698
21.8102     19.832    25.511
22.1274     20.203    23.824
22.4492     20.542    24.105
22.7758     21.037    26.178
23.1071     21.833    28.927
23.4432     22.901    30.764
23.7841     24.040    30.830
24.1301     25.072    29.666
24.4811     25.947    28.095
24.8372     26.696    26.772
25.1984     27.400    25.981
25.5649     28.127    25.568
25.9368     28.903    25.135
26.3141     29.699    24.379
26.6968     30.469    23.301
27.0851     31.195    22.131
27.4791     31.895    21.097
27.8788     32.609    20.202
28.2843     33.358    19.222
28.6957     34.123    17.959
29.1131     34.869    16.417
29.5365     35.577    14.793
29.9661     36.258    13.312
30.4020     36.945    12.062
30.8442     37.673    10.906
31.2929     38.432     9.617
31.7480     39.194     8.132
32.2098     39.942     6.547
32.6783     40.675     5.029
33.1536     41.416     3.610
33.6359     42.179     2.177
34.1251     42.956     0.588
34.6215     43.724    -1.172
35.1250     44.480    -3.000
35.6359     45.230    -4.829
36.1543     45.992    -6.709
36.6802     46.766    -8.744
37.2137     47.539   -10.971
37.7550     48.307   -13.309
38.3041     49.079   -15.731
38.8613     49.864   -18.287
39.4265     50.654   -21.073
40.0000     51.430   -24.029
40.5818     52.196   -27.072
41.1721     52.963   -30.239
41.7710     53.719   -33.652
42.3785     54.421   -37.317
42.9949     55.052   -40.871
43.6203     55.656   -44.030
44.2548     56.304   -46.901
44.8985     57.012   -50.038
45.5515     57.719   -53.688
46.2141     58.378   -57.666
46.8863     58.998   -61.698
47.5683     59.607   -65.770
48.2602     60.207   -70.008
48.9621     60.781   -74.394
49.6743     61.322   -78.843
50.3968     61.832   -83.319
51.1299     62.307   -87.794
51.8736     62.745   -92.229
52.6281     63.149   -96.630
53.3936     63.517  -101.020
54.1702     63.847  -105.373
54.9581     64.148  -109.670
55.7575     64.425  -113.938
56.5685     64.683  -118.175
57.3914     64.923  -122.344
58.2261     65.150  -126.418
59.0730     65.362  -130.347
59.9323     65.558  -134.071
60.8040     65.748  -137.559
61.6884     65.936  -140.846
62.5857     66.121  -144.031
63.4960     66.291  -147.151
64.4196     66.449  -150.209
65.3566     66.597  -153.222
66.3073     66.739  -156.197
67.2717     66.878  -159.115
68.2502     67.020  -161.923
69.2429     67.172  -164.578
70.2501     67.348  -167.136
71.2719     67.539  -169.674
72.3086     67.731  -172.258
73.3603     67.906  -174.824
74.4274     68.084  -177.289
75.5099     68.265  -179.850
76.6083     68.419   177.632
77.7226     68.588   175.363
78.8531     68.795   173.094
80.0000     69.021   170.741
81.1636     69.258   168.297
82.3442     69.503   165.727
83.5419     69.746   163.022
84.7570     69.981   160.247
85.9899     70.211   157.464
87.2406     70.443   154.734
88.5096     70.694   152.025
89.7970     70.952   149.142
91.1031     71.187   146.027
92.4282     71.377   142.814
93.7726     71.535   139.680
95.1366     71.687   136.708
96.5204     71.860   133.833
97.9243     72.048   130.982
99.3486     72.250   128.108
100.794     72.448   125.079
102.260     72.620   121.925
103.747     72.770   118.691
105.256     72.902   115.343
106.787     73.015   111.904
108.340     73.097   108.383
109.916     73.131   104.946
111.515     73.150   101.850
113.137     73.192    98.795
114.783     73.227    95.670
116.452     73.241    92.626
118.146     73.250    89.704
119.865     73.258    86.793
121.608     73.246    83.863
123.377     73.225    81.014
125.171     73.201    78.135
126.992     73.161    75.278
128.839     73.106    72.448
130.713     73.032    69.647
132.615     72.939    67.007
134.543     72.843    64.590
136.500     72.771    62.211
138.486     72.697    59.956
140.500     72.591    57.498
142.544     72.444    55.013
144.617     72.289    53.162
146.721     72.194    51.671
148.855     72.152    49.782
151.020     72.102    47.525
153.217     72.014    45.364
155.445     71.933    43.321
157.706     71.799    40.985
160.000     71.541    39.169
162.327     71.369    38.207
164.688     71.267    37.171
167.084     71.248    36.109
169.514     71.232    33.467
171.980     70.926    31.245
174.481     70.668    30.769
177.019     70.550    30.375
179.594     70.509    29.960
182.206     70.479    29.461
184.856     70.468    28.650
187.545     70.486    27.405
190.273     70.556    25.927
193.041     70.577    24.233
195.849     70.538    22.827
198.697     70.489    20.954
201.587     70.362    19.002
204.520     70.154    17.511
207.494     69.952    16.525
210.512     69.825    16.211
213.574     69.787    15.322
216.681     69.748    14.446
219.833     69.618    13.387
223.030     69.490    12.815
226.274     69.436    12.428
229.565     69.468    11.647
232.905     69.393    10.720
236.292     69.347    10.259
239.729     69.364     9.678
243.216     69.439     8.538
246.754     69.370     6.838
250.343     69.196     5.900
253.984     69.139     5.751
257.678     69.105     5.095
261.426     69.123     4.088
265.229     69.063     2.661
269.087     68.786     1.575
273.001     68.707     2.245
276.972     68.797     2.024
281.000     68.767     1.304
285.088     68.764     1.055
289.234     68.805     0.765
293.441     68.927    -0.821
297.709     68.816    -2.327
302.040     68.696    -3.569
306.433     68.395    -4.117
310.890     68.456    -3.183
315.412     68.513    -4.914
320.000     68.321    -5.872
324.655     68.083    -5.708
329.377     68.077    -4.933
334.168     68.115    -5.343
339.028     68.007    -4.437
343.959     68.241    -5.266
348.962     68.149    -6.425
354.038     67.975    -6.404
359.188     68.051    -6.117
364.412     67.939    -6.585
369.713     67.933    -5.700
375.090     68.010    -5.936
380.546     68.048    -5.872
386.081     68.195    -6.343
391.697     68.137    -7.275
397.394     68.126    -8.140
403.175     68.025    -8.160
409.039     68.042    -8.012
414.989     68.081    -8.180
421.025     68.143    -8.616
427.149     68.155    -9.225
433.362     68.171    -9.661
439.665     68.227   -10.311
446.060     68.221   -10.999
452.548     68.229   -11.635
459.131     68.242   -12.282
465.809     68.266   -13.005
472.584     68.296   -13.664
479.458     68.332   -14.303
486.432     68.358   -14.931
493.507     68.381   -15.654
500.686     68.417   -16.363
507.968     68.445   -17.082
515.357     68.490   -17.780
522.853     68.522   -18.437
530.458     68.565   -19.168
538.174     68.604   -19.925
546.002     68.652   -20.675
553.943     68.707   -21.535
562.001     68.765   -22.373
570.175     68.823   -23.327
578.469     68.889   -24.366
586.883     68.955   -25.430
595.419     69.006   -26.554
604.080     69.064   -27.871
612.866     69.112   -29.180
621.780     69.144   -30.613
630.824     69.162   -32.139
640.000     69.170   -33.720
649.309     69.153   -35.362
658.753     69.127   -36.963
668.335     69.069   -38.587
678.056     68.986   -40.189
687.919     68.878   -41.688
697.925     68.756   -43.100
708.077     68.606   -44.300
718.376     68.441   -45.337
728.825     68.273   -46.135
739.426     68.100   -46.648
750.181     67.949   -46.917
761.093     67.815   -46.870
772.163     67.727   -46.624
783.394     67.688   -46.201
794.789     67.710   -45.765
806.349     67.785   -45.376
818.078     67.929   -45.183
829.977     68.104   -45.275
842.050     68.322   -45.738
854.298     68.539   -46.542
866.724     68.764   -47.780
879.330     68.971   -49.324
892.120     69.150   -51.180
905.097     69.293   -53.291
918.262     69.401   -55.507
931.618     69.464   -57.815
945.169     69.485   -60.129
958.917     69.473   -62.367
972.864     69.437   -64.471
987.015     69.390   -66.392
1001.37     69.326   -68.129
1015.94     69.269   -69.721
1030.71     69.230   -71.198
1045.71     69.211   -72.699
1060.92     69.215   -74.335
1076.35     69.244   -76.067
1092.00     69.267   -78.020
1107.89     69.281   -80.227
1124.00     69.264   -82.591
1140.35     69.201   -85.086
1156.94     69.094   -87.605
1173.77     68.925   -89.990
1190.84     68.723   -92.063
1208.16     68.489   -93.679
1225.73     68.255   -94.789
1243.56     68.067   -95.429
1261.65     67.965   -95.689
1280.00     67.963   -95.854
1298.62     68.067   -96.279
1317.51     68.234   -97.239
1336.67     68.429   -99.009
1356.11     68.618  -101.299
1375.84     68.720  -104.258
1395.85     68.738  -107.418
1416.15     68.645  -110.560
1436.75     68.464  -113.317
1457.65     68.228  -115.347
1478.85     67.983  -116.568
1500.36     67.831  -116.963
1522.19     67.827  -116.901
1544.33     67.994  -117.036
1566.79     68.302  -117.943
1589.58     68.670  -119.936
1612.70     69.000  -123.008
1636.16     69.235  -126.830
1659.95     69.340  -131.181
1684.10     69.301  -135.455
1708.60     69.137  -139.383
1733.45     68.906  -142.459
1758.66     68.660  -144.641
1784.24     68.493  -145.989
1810.19     68.455  -146.892
1836.52     68.554  -147.915
1863.24     68.759  -149.512
1890.34     68.999  -151.852
1917.83     69.216  -154.879
1945.73     69.374  -158.335
1974.03     69.460  -161.984
2002.74     69.477  -165.626
2031.87     69.459  -168.980
2061.43     69.421  -172.038
2091.41     69.399  -174.816
2121.83     69.419  -177.481
2152.69     69.482   179.713
2184.01     69.569   176.529
2215.77     69.621   172.895
2248.00     69.588   169.028
2280.70     69.449   165.394
2313.87     69.245   162.507
2347.53     69.072   160.649
2381.68     69.049   159.367
2416.32     69.212   157.685
2451.46     69.448   154.768
2487.12     69.581   150.629
2523.30     69.498   146.149
2560.00     69.212   142.627
2597.24     68.905   140.906
2635.01     68.830   140.522
2673.34     69.057   139.630
2712.23     69.386   136.831
2751.68     69.552   132.481
2791.70     69.448   128.082
2832.31     69.185   125.081
2873.50     69.018   123.697
2915.30     69.103   122.446
2957.70     69.316   119.817
3000.72     69.413   115.817
3044.37     69.277   111.681
3088.65     68.969   108.664
3133.58     68.693   107.165
3179.16     68.606   106.446
3225.40     68.714   105.238
3272.31     68.866   102.817
3319.91     68.886    99.426
3368.20     68.685    96.316
3417.19     68.410    94.859
3466.89     68.359    94.739
3517.32     68.595    93.550
3568.48     68.758    90.262
3620.39     68.581    86.931
3673.05     68.310    85.943
3726.47     68.411    86.190
3780.67     68.766    84.228
3835.67     68.873    80.328
3891.46     68.701    77.573
3948.06     68.684    76.585
4005.49     68.963    74.554
4063.75     69.152    70.187
4122.86     69.033    65.101
4182.82     68.622    60.715
4243.66     68.009    58.173
4305.39     67.501    58.356
4368.01     67.394    58.907
4431.55     67.318    57.607
4496.01     67.040    57.345
4561.40     67.139    58.343
4627.75     67.413    55.909
4695.06     67.068    52.586
4763.35     66.656    53.906
4832.64     66.925    54.916
4902.93     67.033    52.723
4974.24     66.922    52.198
5046.60     67.100    51.347
5120.00     67.019    49.209
5194.47     66.948    49.499
5270.03     67.212    48.084
5346.68     67.009    45.805
5424.45     66.963    47.183
5503.35     67.369    46.245
5583.40     67.467    44.186
5664.61     67.748    42.867
5747.01     68.001    38.836
5830.60     67.907    34.779
5915.41     67.650    30.912
6001.45     67.196    29.058
6088.74     67.048    27.204
6177.30     66.380    24.486
6267.15     65.922    27.303
6358.31     65.878    26.490
6450.80     65.330    29.102
6544.62     65.809    31.530
6639.82     65.792    30.333
6736.40     66.008    31.882
6834.38     66.276    30.696
6933.79     66.540    29.291
7034.64     66.457    26.728
7136.96     66.554    26.521
7240.77     66.468    23.927
7346.09     66.526    24.539
7452.94     66.603    21.350
7561.35     66.450    21.100
7671.33     66.468    19.460
7782.91     66.511    18.887
7896.12     66.497    16.909
8010.97     66.670    15.022
8127.49     66.360    11.728
8245.71     66.330    10.256
8365.65     65.883     7.928
8487.33     65.846     6.460
8610.78     65.220     3.731
8736.03     64.803     4.077
8863.09     64.263     2.445
8992.01     63.432     6.314
9122.80     63.323     8.696
9255.50     63.340    14.778
9390.12     63.701    14.748
9526.70     64.265    16.946
9665.27     64.532    13.189
9805.86     64.495    11.911
9948.49     64.520     8.640
10093.2     64.130     8.030
10240.0     63.759     4.824
10388.9     63.283     5.736
10540.1     62.470     6.630
10693.4     62.035    11.721
10848.9     62.034    17.362
11006.7     62.703    22.335
11166.8     63.410    23.107
11329.2     63.954    21.140
11494.0     64.017    19.049
11661.2     64.124    17.295
11830.8     63.945    18.403
12002.9     63.779    19.908
12177.5     64.412    23.121
12354.6     65.251    24.103
12534.3     65.922    19.969
12716.6     66.527    15.598
12901.6     66.787    11.619
13089.2     66.723     5.719
13279.6     66.452     1.544
13472.8     66.294     1.029
13668.8     66.465     0.248
13867.6     66.879    -3.531
14069.3     67.290    -9.239
14273.9     67.465   -16.038
14481.5     67.209   -24.202
14692.2     66.612   -32.377
14905.9     65.906   -39.503
15122.7     65.003   -45.622
15342.7     63.889   -50.012
15565.8     62.931   -53.917
15792.2     61.900   -58.625
16021.9     60.684   -62.264
16255.0     59.513   -63.963
16491.4     58.470   -67.644
16731.3     56.897   -72.586
16974.7     54.789   -75.991
17221.6     52.240   -74.496
17472.1     50.024   -64.458
17726.2     49.405   -53.437
17984.0     49.345   -51.237
18245.6     48.418   -56.046
18511.0     46.106   -60.358
18780.2     42.284   -57.744
19053.4     37.611   -38.799
19330.5     35.088    12.649
19611.7     40.260    49.938
19897.0     44.612    52.368
20186.4     47.183    45.691
20480.0     48.351    36.605
20777.9     48.540    30.148
21080.1     48.929    25.954
21386.7     48.996    18.019
21697.8     48.521    10.307
22013.4     47.582     4.241
22333.6     46.459    -1.009
22658.4     44.853    -4.252
22988.0     43.220    -3.428
23322.4     42.027    -1.873
23661.6     40.818    -1.087
24005.8     39.291     0.731
24355.0     37.619     6.362
24709.2     37.299    17.263
25068.6     37.953    15.937
25433.2     37.081     8.209
25803.2     35.524     7.456
26178.5     35.601     7.526
26559.3     36.313    -5.764
26945.6     36.456   -26.796
27337.5     36.018   -51.390
27735.2     36.278   -70.334
28138.6     37.641   -96.817
28547.9     37.310  -125.988
28963.1     34.973  -141.671
29384.4     34.346  -132.096
29811.8     36.397  -127.746
30245.4     38.505  -135.236
30685.3     39.811  -145.875
31131.7     40.550  -158.698
31584.5     40.046  -173.748
32043.9     38.039   177.367
32510.0     35.468  -178.370
32982.8     34.682  -161.771
33462.6     36.863  -155.577
33949.3     37.688  -164.146
34443.1     37.593  -168.918
34944.1     37.353  -177.244
35452.4     35.832   173.071
35968.0     33.508   173.788
36491.2     30.869   174.787
37022.0     29.282  -157.425
37560.5     32.209  -150.439
38106.8     33.201  -167.026
38661.1     31.748  -176.818
39223.4     29.790   175.091
39793.9     26.147   -47.205
