Freq[Hz]     dBSPL  Phase[Deg]
5.00000    -23.815  -147.964
5.07273    -23.440  -147.591
5.14651    -23.181  -147.268
5.22137    -23.246  -147.086
5.29732    -23.310  -146.905
5.37437    -23.375  -146.723
5.45254    -23.440  -146.542
5.53185    -23.755  -145.085
5.61231    -24.336  -142.279
5.69394    -24.917  -139.472
5.77676    -25.498  -136.666
5.86079    -26.071  -133.723
5.94604    -26.217  -122.680
6.03252    -26.363  -111.637
6.12027    -26.509  -100.595
6.20929    -26.655   -89.553
6.29961    -25.681   -82.467
6.39124    -24.459   -76.258
6.48420    -23.237   -70.049
6.57851    -22.015   -63.841
6.67420    -21.177   -62.550
6.77128    -20.403   -62.057
6.86977    -19.628   -61.565
6.96969    -18.933   -61.146
7.07107    -18.843   -61.291
7.17392    -18.754   -61.436
7.27827    -18.664   -61.581
7.38413    -18.977   -59.504
7.49154    -19.602   -55.710
7.60050    -20.226   -51.915
7.71105    -20.726   -46.268
7.82321    -20.675   -32.483
7.93701    -20.624   -18.698
8.05245    -20.574    -4.913
8.16958    -19.074     2.883
8.28841    -17.520    10.455
8.40896    -15.967    18.027
8.53128    -14.922    20.791
8.65537    -13.943    22.934
8.78126    -12.964    25.077
8.90899    -12.518    29.397
9.03857    -12.106    33.859
9.17004    -11.631    38.867
9.30342    -10.644    48.224
9.43874     -9.657    57.580
9.57603     -8.280    65.198
9.71532     -6.305    70.161
9.85663     -4.329    75.123
10.0000     -2.525    75.273
10.1455     -0.769    74.083
10.2930      0.848    72.137
10.4427      2.075    68.083
10.5946      3.302    64.029
10.7487      4.123    59.077
10.9051      4.864    53.945
11.0637      5.362    48.871
11.2246      5.604    43.859
11.3879      5.731    39.242
11.5535      5.441    36.068
11.7216      5.146    32.984
11.8921      4.502    35.215
12.0650      3.858    37.446
12.2405      3.984    46.031
12.4186      4.209    55.434
12.5992      5.601    61.207
12.7825      7.251    66.174
12.9684      8.887    64.838
13.1570     10.520    62.035
13.3484     11.717    55.843
13.5426     12.843    49.100
13.7395     13.458    40.545
13.9394     13.990    31.811
14.1421     14.043    22.251
14.3478     13.900    12.604
14.5565     13.337     2.771
14.7683     12.304    -6.662
14.9831     10.909   -15.785
15.2010      8.307   -21.408
15.4221      5.206   -21.137
15.6464      0.821     2.391
15.8740      1.010    29.461
16.1049      4.851    59.359
16.3392      7.869    56.881
16.5768     10.236    51.135
16.8179     11.701    42.399
17.0626     12.366    33.177
17.3107     12.669    24.357
17.5625     12.576    16.243
17.8180     12.016    10.705
18.0771     11.300     7.648
18.3401     10.493     7.405
18.6068      9.921    11.902
18.8775      9.912    18.467
19.1521     10.377    25.367
19.4306     11.294    31.496
19.7133     12.556    35.565
20.0000     13.967    37.812
20.2909     15.436    38.309
20.5860     16.882    37.059
20.8855     18.211    34.200
21.1893     19.274    30.126
21.4975     20.062    25.970
21.8102     20.603    22.554
22.1274     20.974    20.632
22.4492     21.319    20.676
22.7758     21.824    22.519
23.1071     22.639    25.053
23.4432     23.727    26.697
23.7841     24.894    26.602
24.1301     25.955    25.314
24.4811     26.860    23.658
24.8372     27.642    22.293
25.1984     28.375    21.502
25.5649     29.131    21.129
25.9368     29.931    20.773
26.3141     30.746    20.123
26.6968     31.530    19.172
27.0851     32.262    18.141
27.4791     32.963    17.248
27.8788     33.670    16.484
28.2843     34.406    15.617
28.6957     35.154    14.440
29.1131     35.878    12.950
29.5365     36.561    11.337
29.9661     37.217     9.828
30.4020     37.879     8.508
30.8442     38.585     7.240
31.2929     39.326     5.808
31.7480     40.074     4.157
32.2098     40.813     2.392
32.6783     41.544     0.693
33.1536     42.288    -0.898
33.6359     43.058    -2.484
34.1251     43.846    -4.198
34.6215     44.626    -6.049
35.1250     45.393    -7.938
35.6359     46.153    -9.796
36.1543     46.922   -11.681
36.6802     47.699   -13.706
37.2137     48.469   -15.918
37.7550     49.230   -18.248
38.3041     49.992   -20.679
38.8613     50.763   -23.266
39.4265     51.539   -26.111
40.0000     52.301   -29.152
40.5818     53.053   -32.303
41.1721     53.810   -35.595
41.7710     54.558   -39.140
42.3785     55.255   -42.935
42.9949     55.884   -46.612
43.6203     56.485   -49.883
44.2548     57.133   -52.851
44.8985     57.836   -56.075
45.5515     58.538   -59.809
46.2141     59.189   -63.876
46.8863     59.800   -68.008
47.5683     60.399   -72.201
48.2602     60.989   -76.578
48.9621     61.555   -81.122
49.6743     62.091   -85.739
50.3968     62.601   -90.383
51.1299     63.078   -95.013
51.8736     63.519   -99.584
52.6281     63.927  -104.096
53.3936     64.297  -108.574
54.1702     64.625  -113.001
54.9581     64.920  -117.372
55.7575     65.189  -121.729
56.5685     65.434  -126.082
57.3914     65.662  -130.400
58.2261     65.879  -134.651
59.0730     66.085  -138.773
59.9323     66.281  -142.687
60.8040     66.475  -146.342
61.6884     66.668  -149.760
62.5857     66.856  -153.045
63.4960     67.024  -156.245
64.4196     67.173  -159.388
65.3566     67.308  -162.516
66.3073     67.435  -165.650
67.2717     67.564  -168.770
68.2502     67.701  -171.798
69.2429     67.857  -174.656
70.2501     68.040  -177.363
71.2719     68.237  -179.982
72.3086     68.426   177.405
73.3603     68.582   174.809
74.4274     68.727   172.250
75.5099     68.868   169.475
76.6083     68.990   166.607
77.7226     69.144   163.890
78.8531     69.360   161.159
80.0000     69.617   158.431
81.1636     69.897   155.769
82.3442     70.177   153.148
83.5419     70.435   150.497
84.7570     70.661   147.776
85.9899     70.866   144.951
87.2406     71.068   142.042
88.5096     71.300   139.053
89.7970     71.556   135.871
91.1031     71.801   132.520
92.4282     72.003   129.168
93.7726     72.162   125.965
95.1366     72.302   122.922
96.5204     72.452   119.914
97.9243     72.616   116.845
99.3486     72.802   113.692
100.794     72.992   110.373
102.260     73.164   106.956
103.747     73.315   103.498
105.256     73.446    99.951
106.787     73.554    96.314
108.340     73.630    92.583
109.916     73.659    88.926
111.515     73.673    85.613
113.137     73.712    82.354
114.783     73.740    79.038
116.452     73.743    75.800
118.146     73.739    72.658
119.865     73.734    69.491
121.608     73.712    66.279
123.377     73.686    63.144
125.171     73.660    59.995
126.992     73.618    56.891
128.839     73.559    53.826
130.713     73.479    50.779
132.615     73.379    47.874
134.543     73.283    45.187
136.500     73.210    42.564
138.486     73.131    40.114
140.500     73.014    37.428
142.544     72.853    34.640
144.617     72.693    32.492
146.721     72.597    30.741
148.855     72.548    28.602
151.020     72.485    26.056
153.217     72.390    23.554
155.445     72.312    21.204
157.706     72.179    18.635
160.000     71.907    16.549
162.327     71.723    15.221
164.688     71.624    13.845
167.084     71.611    12.516
169.514     71.586     9.602
171.980     71.269     7.009
174.481     71.014     6.193
177.019     70.895     5.536
179.594     70.840     4.780
182.206     70.809     3.784
184.856     70.825     2.597
187.545     70.851     1.188
190.273     70.902    -0.563
193.041     70.915    -2.693
195.849     70.886    -4.451
198.697     70.830    -6.619
201.587     70.689    -9.002
204.520     70.485   -10.957
207.494     70.288   -12.315
210.512     70.156   -13.074
213.574     70.126   -14.444
216.681     70.095   -15.697
219.833     69.964   -17.183
223.030     69.843   -18.261
226.274     69.799   -19.082
229.565     69.829   -20.326
232.905     69.762   -21.821
236.292     69.741   -22.741
239.729     69.762   -23.681
243.216     69.824   -25.337
246.754     69.761   -27.628
250.343     69.593   -29.103
253.984     69.536   -29.838
257.678     69.503   -31.084
261.426     69.517   -32.802
265.229     69.481   -34.958
269.087     69.219   -36.520
273.001     69.119   -36.458
276.972     69.204   -37.430
281.000     69.171   -38.914
285.088     69.177   -39.991
289.234     69.215   -40.958
293.441     69.326   -43.408
297.709     69.218   -45.640
302.040     69.068   -47.679
306.433     68.766   -49.137
310.890     68.803   -48.946
315.412     68.825   -51.601
320.000     68.604   -53.405
324.655     68.324   -54.135
329.377     68.276   -54.184
334.168     68.258   -55.631
339.028     68.124   -55.506
343.959     68.262   -57.101
348.962     68.111   -59.278
354.038     67.883   -59.889
359.188     67.851   -60.351
364.412     67.672   -61.655
369.713     67.569   -61.401
375.090     67.572   -62.283
380.546     67.519   -62.760
386.081     67.577   -63.671
391.697     67.438   -65.137
397.394     67.343   -66.341
403.175     67.184   -66.670
409.039     67.113   -66.839
414.989     67.120   -67.319
421.025     67.133   -67.950
427.149     67.123   -68.859
433.362     67.134   -69.348
439.665     67.159   -70.293
446.060     67.160   -71.357
452.548     67.214   -72.380
459.131     67.256   -73.314
465.809     67.333   -74.435
472.584     67.390   -75.588
479.458     67.473   -76.851
486.432     67.558   -78.318
493.507     67.651   -79.812
500.686     67.738   -81.417
507.968     67.818   -83.109
515.357     67.894   -85.003
522.853     67.982   -86.859
530.458     68.046   -88.803
538.174     68.098   -90.890
546.002     68.149   -93.051
553.943     68.189   -95.167
562.001     68.211   -97.500
570.175     68.231   -99.819
578.469     68.226  -102.285
586.883     68.219  -104.735
595.419     68.196  -107.160
604.080     68.173  -109.598
612.866     68.102  -112.002
621.780     68.041  -114.543
630.824     67.960  -116.978
640.000     67.867  -119.330
649.309     67.751  -121.644
658.753     67.638  -123.811
668.335     67.502  -126.010
678.056     67.362  -128.044
687.919     67.214  -129.945
697.925     67.076  -131.752
708.077     66.932  -133.294
718.376     66.814  -134.854
728.825     66.706  -136.141
739.426     66.622  -137.367
750.181     66.571  -138.491
761.093     66.551  -139.597
772.163     66.566  -140.726
783.394     66.617  -142.007
794.789     66.704  -143.490
806.349     66.841  -145.057
818.078     66.963  -146.904
829.977     67.105  -149.085
842.050     67.243  -151.562
854.298     67.372  -154.335
866.724     67.488  -157.340
879.330     67.565  -160.562
892.120     67.618  -164.015
905.097     67.621  -167.631
918.262     67.591  -171.251
931.618     67.508  -174.861
945.169     67.380  -178.395
958.917     67.209   178.202
972.864     67.022   175.043
987.015     66.800   172.185
1001.37     66.588   169.602
1015.94     66.395   167.391
1030.71     66.224   165.524
1045.71     66.128   163.689
1060.92     66.068   161.831
1076.35     66.086   159.658
1092.00     66.152   157.192
1107.89     66.228   154.115
1124.00     66.292   150.494
1140.35     66.314   146.308
1156.94     66.267   141.610
1173.77     66.125   136.563
1190.84     65.875   131.300
1208.16     65.473   126.135
1225.73     64.944   121.007
1243.56     64.267   116.524
1261.65     63.464   113.021
1280.00     62.552   110.909
1298.62     61.668   110.609
1317.51     60.904   112.235
1336.67     60.455   115.173
1356.11     60.372   118.160
1375.84     60.607   119.685
1395.85     60.987   119.054
1416.15     61.344   116.480
1436.75     61.548   112.510
1457.65     61.539   107.320
1478.85     61.331   101.757
1500.36     60.852    96.158
1522.19     60.169    91.156
1544.33     59.265    87.192
1566.79     58.228    84.856
1589.58     57.173    84.423
1612.70     56.252    85.830
1636.16     55.580    87.958
1659.95     55.143    89.862
1684.10     54.775    90.471
1708.60     54.330    89.907
1733.45     53.687    88.829
1758.66     52.719    88.579
1784.24     51.517    90.272
1810.19     50.263    95.447
1836.52     49.295   104.012
1863.24     49.009   114.004
1890.34     49.288   121.403
1917.83     49.512   126.036
1945.73     49.501   128.369
1974.03     48.809   131.468
2002.74     47.744   140.010
2031.87     46.911   158.001
2061.43     48.197  -178.843
2091.41     51.174  -165.737
2121.83     54.146  -163.250
2152.69     56.482  -166.188
2184.01     58.201  -171.660
2215.77     59.394  -177.707
2248.00     60.174   176.892
2280.70     60.716   173.124
2313.87     61.237   170.980
2347.53     61.945   169.721
2381.68     62.864   167.677
2416.32     63.841   163.894
2451.46     64.653   158.402
2487.12     65.179   152.102
2523.30     65.437   146.309
2560.00     65.521   141.851
2597.24     65.648   138.896
2635.01     65.942   136.297
2673.34     66.346   132.778
2712.23     66.657   127.999
2751.68     66.722   122.970
2791.70     66.567   119.134
2832.31     66.405   117.459
2873.50     66.526   116.890
2915.30     66.943   115.370
2957.70     67.380   111.814
3000.72     67.593   107.205
3044.37     67.572   103.082
3088.65     67.501   100.405
3133.58     67.593    98.422
3179.16     67.842    95.637
3225.40     68.048    91.531
3272.31     68.052    86.890
3319.91     67.871    82.893
3368.20     67.658    80.057
3417.19     67.567    77.833
3466.89     67.562    75.060
3517.32     67.471    71.372
3568.48     67.165    67.850
3620.39     66.728    66.049
3673.05     66.483    65.851
3726.47     66.531    65.118
3780.67     66.544    62.586
3835.67     66.290    60.115
3891.46     66.022    59.552
3948.06     66.041    59.029
4005.49     66.045    56.391
4063.75     65.640    53.984
4122.86     65.173    55.171
4182.82     65.303    57.782
4243.66     65.782    57.266
4305.39     66.037    54.454
4368.01     66.094    51.468
4431.55     66.015    48.028
4496.01     65.589    44.972
4561.40     64.979    45.090
4627.75     64.798    48.212
4695.06     65.160    49.814
4763.35     65.481    48.521
4832.64     65.520    47.278
4902.93     65.688    47.781
4974.24     66.225    46.745
5046.60     66.583    42.864
5120.00     66.607    39.496
5194.47     66.772    36.583
5270.03     66.823    31.170
5346.68     66.276    26.399
5424.45     65.678    25.303
5503.35     65.365    24.770
5583.40     64.982    24.597
5664.61     64.820    26.284
5747.01     65.106    26.584
5830.60     65.254    23.306
5915.41     64.786    20.768
6001.45     64.512    22.052
6088.74     64.552    21.237
6177.30     64.266    21.654
6267.15     64.600    22.638
6358.31     64.618    18.411
6450.80     63.948    18.038
6544.62     63.765    20.824
6639.82     63.824    23.857
6736.40     64.431    26.974
6834.38     65.393    25.678
6933.79     65.986    21.171
7034.64     66.457    16.291
7136.96     66.614     7.846
7240.77     65.944     1.036
7346.09     65.254    -3.838
7452.94     63.895    -5.697
7561.35     63.330    -0.865
7671.33     63.316     1.075
7782.91     63.746     1.108
7896.12     63.735    -4.451
8010.97     63.063    -8.780
8127.49     61.989   -10.953
8245.71     60.753    -6.910
8365.65     60.627    -0.172
8487.33     60.830     2.927
8610.78     61.254     1.842
8736.03     60.747     0.267
8863.09     60.353     0.241
8992.01     59.702     4.852
9122.80     59.812     7.232
9255.50     59.615    11.001
9390.12     59.685    13.485
9526.70     59.576    19.262
9665.27     60.433    24.021
9805.86     61.477    27.015
9948.49     62.571    21.606
10093.2     62.789    17.574
10240.0     62.478    14.047
10388.9     62.677    17.445
10540.1     63.602    14.495
10693.4     64.042     7.061
10848.9     63.206    -0.753
11006.7     62.204     0.091
11166.8     62.000     4.800
11329.2     62.714     5.265
11494.0     62.803     2.771
11661.2     62.911     0.391
11830.8     63.307    -0.423
12002.9     63.392    -5.767
12177.5     63.363   -11.368
12354.6     62.955   -13.578
12534.3     62.909   -16.504
12716.6     63.189   -24.133
12901.6     62.332   -34.281
13089.2     60.266   -37.079
13279.6     59.656   -31.631
13472.8     59.964   -36.084
13668.8     58.402   -42.401
13867.6     56.987   -35.652
14069.3     57.916   -33.714
14273.9     57.783   -45.802
14481.5     55.506   -52.765
14692.2     53.874   -50.303
14905.9     52.640   -54.060
15122.7     49.530   -54.356
15342.7     46.672   -31.863
15565.8     47.678   -11.298
15792.2     49.133    -4.917
16021.9     50.486    -7.123
16255.0     50.688   -17.456
16491.4     48.638   -27.510
16731.3     45.598   -23.019
16974.7     43.618    -5.201
17221.6     43.963    14.411
17472.1     46.004    25.043
17726.2     47.813    19.770
17984.0     47.520     8.574
18245.6     45.873     8.746
18511.0     45.378    10.733
18780.2     43.891    12.377
19053.4     42.633    25.976
19330.5     43.873    38.763
19611.7     45.268    37.832
19897.0     45.709    31.816
20186.4     45.408    27.252
20480.0     45.012    21.124
20777.9     43.259    16.018
21080.1     42.762    20.883
21386.7     42.548    13.562
21697.8     41.430     5.537
22013.4     40.466    -3.174
22333.6     39.466   -20.898
22658.4     37.542   -48.285
22988.0     37.001   -76.791
23322.4     38.599  -111.625
23661.6     40.203  -141.802
24005.8     40.823  -158.815
24355.0     42.738  -170.064
24709.2     44.028   174.241
25068.6     44.207   160.572
25433.2     43.887   145.740
25803.2     40.957   138.794
26178.5     39.617   154.265
26559.3     40.383   164.300
26945.6     42.234   167.152
27337.5     42.779   155.196
27735.2     41.165   151.243
28138.6     40.794   162.264
28547.9     42.052   164.872
28963.1     42.963   159.410
29384.4     42.653   147.109
29811.8     41.135   145.749
30245.4     40.508   140.735
30685.3     38.747   139.589
31131.7     36.575   132.638
31584.5     30.427   140.562
32043.9     29.091  -151.410
32510.0     36.767  -130.306
32982.8     40.928  -145.713
33462.6     42.196  -161.488
33949.3     42.722  -174.332
34443.1     42.423   177.478
34944.1     42.572   165.439
35452.4     41.901   157.139
35968.0     41.676   144.732
36491.2     41.000   128.466
37022.0     38.575   108.396
37560.5     35.481   100.912
38106.8     34.968    87.825
38661.1     31.446    48.973
39223.4     22.626   128.820
39793.9     22.257  -167.773
