Freq[Hz]     dBSPL  Phase[Deg]
5.00000    -26.843  -147.266
5.07273    -26.465  -146.844
5.14651    -26.204  -146.473
5.22137    -26.266  -146.239
5.29732    -26.329  -146.005
5.37437    -26.392  -145.771
5.45254    -26.455  -145.538
5.53185    -26.769  -144.027
5.61231    -27.349  -141.167
5.69394    -27.929  -138.306
5.77676    -28.509  -135.445
5.86079    -29.081  -132.447
5.94604    -29.228  -121.350
6.03252    -29.374  -110.253
6.12027    -29.520   -99.156
6.20929    -29.666   -88.059
6.29961    -28.694   -80.920
6.39124    -27.473   -74.659
6.48420    -26.252   -68.398
6.57851    -25.031   -62.137
6.67420    -24.195   -60.797
6.77128    -23.423   -60.256
6.86977    -22.650   -59.716
6.96969    -21.957   -59.250
7.07107    -21.870   -59.352
7.17392    -21.782   -59.455
7.27827    -21.695   -59.558
7.38413    -22.011   -57.442
7.49154    -22.638   -53.611
7.60050    -23.264   -49.781
7.71105    -23.766   -44.099
7.82321    -23.718   -30.284
7.93701    -23.669   -16.470
8.05245    -23.621    -2.655
8.16958    -22.122     5.164
8.28841    -20.570    12.759
8.40896    -19.017    20.355
8.53128    -17.973    23.138
8.65537    -16.995    25.300
8.78126    -16.016    27.462
8.90899    -15.569    31.798
9.03857    -15.156    36.276
9.17004    -14.680    41.301
9.30342    -13.690    50.674
9.43874    -12.701    60.047
9.57603    -11.320    67.682
9.71532     -9.341    72.663
9.85663     -7.361    77.645
10.0000     -5.551    77.819
10.1455     -3.789    76.654
10.2930     -2.165    74.736
10.4427     -0.931    70.716
10.5946      0.304    66.696
10.7487      1.134    61.788
10.9051      1.884    56.702
11.0637      2.391    51.681
11.2246      2.641    46.728
11.3879      2.778    42.174
11.5535      2.498    39.076
11.7216      2.212    36.068
11.8921      1.578    38.391
12.0650      0.943    40.714
12.2405      1.078    49.404
12.4186      1.313    58.916
12.5992      2.712    64.809
12.7825      4.371    69.899
12.9684      6.012    68.696
13.1570      7.650    66.028
13.3484      8.851    59.979
13.5426      9.980    53.382
13.7395     10.596    44.976
13.9394     11.128    36.392
14.1421     11.178    26.983
14.3478     11.033    17.486
14.5565     10.465     7.799
14.7683      9.426    -1.491
14.9831      8.023   -10.476
15.2010      5.412   -15.970
15.4221      2.301   -15.576
15.6464     -2.096     8.064
15.8740     -1.919    35.234
16.1049      1.910    65.224
16.3392      4.916    62.820
16.5768      7.270    57.139
16.8179      8.722    48.456
17.0626      9.376    39.270
17.3107      9.668    30.477
17.5625      9.566    22.379
17.8180      8.999    16.844
18.0771      8.277    13.784
18.3401      7.467    13.530
18.6068      6.894    18.011
18.8775      6.887    24.560
19.1521      7.357    31.443
19.4306      8.279    37.559
19.7133      9.552    41.622
20.0000     10.975    43.874
20.2909     12.458    44.387
20.5860     13.920    43.168
20.8855     15.267    40.357
21.1893     16.349    36.353
21.4975     17.155    32.286
21.8102     17.714    28.979
22.1274     18.103    27.184
22.4492     18.464    27.372
22.7758     18.985    29.373
23.1071     19.810    32.076
23.4432     20.909    33.894
23.7841     22.081    33.974
24.1301     23.145    32.857
24.4811     24.053    31.364
24.8372     24.834    30.147
25.1984     25.565    29.489
25.5649     26.319    29.230
25.9368     27.118    28.968
26.3141     27.933    28.395
26.6968     28.719    27.505
27.0851     29.457    26.521
27.4791     30.165    25.669
27.8788     30.885    24.942
28.2843     31.639    24.118
28.6957     32.407    22.995
29.1131     33.156    21.577
29.5365     33.868    20.062
29.9661     34.554    18.679
30.4020     35.248    17.518
30.8442     35.985    16.447
31.2929     36.755    15.247
31.7480     37.532    13.856
32.2098     38.295    12.377
32.6783     39.045    10.984
33.1536     39.802     9.706
33.6359     40.582     8.434
34.1251     41.374     7.024
34.6215     42.155     5.458
35.1250     42.920     3.834
35.6359     43.678     2.211
36.1543     44.444     0.536
36.6802     45.218    -1.304
37.2137     45.990    -3.351
37.7550     46.754    -5.529
38.3041     47.522    -7.813
38.8613     48.304   -10.251
39.4265     49.093   -12.939
40.0000     49.871   -15.810
40.5818     50.640   -18.777
41.1721     51.414   -21.868
41.7710     52.180   -25.200
42.3785     52.893   -28.773
42.9949     53.538   -32.222
43.6203     54.155   -35.263
44.2548     54.817   -38.003
44.8985     55.536   -41.003
45.5515     56.254   -44.514
46.2141     56.923   -48.358
46.8863     57.552   -52.264
47.5683     58.172   -56.225
48.2602     58.783   -60.361
48.9621     59.371   -64.651
49.6743     59.930   -69.002
50.3968     60.461   -73.367
51.1299     60.959   -77.708
51.8736     61.420   -81.981
52.6281     61.846   -86.192
53.3936     62.234   -90.368
54.1702     62.578   -94.500
54.9581     62.887   -98.585
55.7575     63.168  -102.672
56.5685     63.429  -106.776
57.3914     63.674  -110.864
58.2261     63.913  -114.900
59.0730     64.148  -118.808
59.9323     64.379  -122.492
60.8040     64.612  -125.883
61.6884     64.850  -128.984
62.5857     65.080  -131.894
63.4960     65.289  -134.662
64.4196     65.472  -137.334
65.3566     65.631  -139.975
66.3073     65.774  -142.633
67.2717     65.912  -145.310
68.2502     66.057  -147.940
69.2429     66.221  -150.438
70.2501     66.417  -152.808
71.2719     66.630  -155.092
72.3086     66.836  -157.361
73.3603     67.009  -159.602
74.4274     67.168  -161.812
75.5099     67.321  -164.265
76.6083     67.455  -166.849
77.7226     67.628  -169.318
78.8531     67.871  -171.813
80.0000     68.164  -174.285
81.1636     68.485  -176.643
82.3442     68.808  -178.909
83.5419     69.106   178.838
84.7570     69.367   176.533
85.9899     69.605   174.128
87.2406     69.839   171.642
88.5096     70.101   169.085
89.7970     70.385   166.345
91.1031     70.654   163.434
92.4282     70.875   160.493
93.7726     71.055   157.656
95.1366     71.219   154.945
96.5204     71.403   152.268
97.9243     71.607   149.573
99.3486     71.833   146.853
100.794     72.056   144.002
102.260     72.254   141.045
103.747     72.429   138.008
105.256     72.586   134.851
106.787     72.726   131.606
108.340     72.835   128.296
109.916     72.894   125.079
111.515     72.936   122.196
113.137     73.003   119.343
114.783     73.062   116.423
116.452     73.102   113.605
118.146     73.134   110.927
119.865     73.160   108.254
121.608     73.162   105.532
123.377     73.157   102.860
125.171     73.151   100.140
126.992     73.132    97.438
128.839     73.099    94.770
130.713     73.050    92.140
132.615     72.979    89.682
134.543     72.907    87.452
136.500     72.858    85.259
138.486     72.804    83.170
140.500     72.722    80.903
142.544     72.598    78.634
144.617     72.463    76.980
146.721     72.385    75.684
148.855     72.360    74.011
151.020     72.322    71.952
153.217     72.245    69.952
155.445     72.180    68.051
157.706     72.065    65.877
160.000     71.823    64.257
162.327     71.665    63.470
164.688     71.578    62.582
167.084     71.577    61.706
169.514     71.577    59.273
171.980     71.287    57.246
174.481     71.048    57.009
177.019     70.932    56.919
179.594     70.872    56.715
182.206     70.840    56.233
184.856     70.862    55.548
187.545     70.895    54.660
190.273     70.944    53.470
193.041     70.953    51.830
195.849     70.933    50.564
198.697     70.888    49.020
201.587     70.744    47.283
204.520     70.535    45.930
207.494     70.339    45.212
210.512     70.197    45.197
213.574     70.145    44.528
216.681     70.097    43.884
219.833     69.953    43.077
223.030     69.814    42.773
226.274     69.743    42.726
229.565     69.746    42.248
232.905     69.649    41.545
236.292     69.593    41.392
239.729     69.584    41.238
243.216     69.621    40.460
246.754     69.521    39.084
250.343     69.313    38.525
253.984     69.226    38.725
257.678     69.172    38.520
261.426     69.146    38.074
265.229     69.041    37.061
269.087     68.742    36.493
273.001     68.621    37.807
276.972     68.659    38.113
281.000     68.594    37.939
285.088     68.558    38.353
289.234     68.569    38.763
293.441     68.661    37.990
297.709     68.501    37.237
302.040     68.366    36.671
306.433     68.048    37.054
310.890     68.091    38.847
315.412     68.146    38.190
320.000     67.917    38.159
324.655     67.692    39.173
329.377     67.676    40.980
334.168     67.722    41.299
339.028     67.669    43.206
343.959     67.918    43.326
348.962     67.874    42.975
354.038     67.742    43.905
359.188     67.851    44.952
364.412     67.796    45.144
369.713     67.845    46.703
375.090     67.979    47.100
380.546     68.053    47.717
386.081     68.247    47.672
391.697     68.236    47.156
397.394     68.248    46.764
403.175     68.167    46.998
409.039     68.191    47.467
414.989     68.240    47.593
421.025     68.270    47.500
427.149     68.262    47.088
433.362     68.228    47.038
439.665     68.223    46.638
446.060     68.151    46.272
452.548     68.082    46.106
459.131     68.002    45.910
465.809     67.920    45.864
472.584     67.827    45.880
479.458     67.733    46.005
486.432     67.634    46.294
493.507     67.516    46.636
500.686     67.411    47.156
507.968     67.304    47.781
515.357     67.215    48.557
522.853     67.132    49.427
530.458     67.069    50.442
538.174     67.025    51.466
546.002     67.008    52.509
553.943     67.019    53.584
562.001     67.030    54.571
570.175     67.092    55.388
578.469     67.154    56.234
586.883     67.225    56.789
595.419     67.307    57.252
604.080     67.369    57.490
612.866     67.437    57.552
621.780     67.478    57.497
630.824     67.495    57.311
640.000     67.488    57.081
649.309     67.439    56.749
658.753     67.352    56.421
668.335     67.233    56.133
678.056     67.064    55.977
687.919     66.857    55.975
697.925     66.611    56.245
708.077     66.337    56.783
718.376     66.042    57.760
728.825     65.742    59.148
739.426     65.452    61.118
750.181     65.191    63.571
761.093     64.979    66.457
772.163     64.858    69.648
783.394     64.827    73.062
794.789     64.885    76.477
806.349     65.028    79.601
818.078     65.246    82.293
829.977     65.504    84.632
842.050     65.791    86.470
854.298     66.064    87.837
866.724     66.317    88.844
879.330     66.545    89.505
892.120     66.728    89.966
905.097     66.875    90.255
918.262     66.980    90.548
931.618     67.036    90.881
945.169     67.074    91.312
958.917     67.078    91.963
972.864     67.077    92.842
987.015     67.080    93.925
1001.37     67.102    95.309
1015.94     67.146    96.754
1030.71     67.256    98.199
1045.71     67.399    99.576
1060.92     67.589   100.594
1076.35     67.801   101.182
1092.00     68.019   101.249
1107.89     68.203   100.815
1124.00     68.332    99.816
1140.35     68.380    98.361
1156.94     68.312    96.662
1173.77     68.108    94.841
1190.84     67.736    93.138
1208.16     67.193    91.953
1225.73     66.465    91.737
1243.56     65.581    93.223
1261.65     64.652    97.251
1280.00     63.886   104.199
1298.62     63.604   113.334
1317.51     63.944   122.389
1336.67     64.750   128.902
1356.11     65.694   132.301
1375.84     66.535   132.735
1395.85     67.157   131.226
1416.15     67.498   128.710
1436.75     67.545   125.777
1457.65     67.288   123.142
1478.85     66.744   121.373
1500.36     65.973   121.353
1522.19     65.076   123.851
1544.33     64.281   129.432
1566.79     63.849   137.380
1589.58     63.937   145.528
1612.70     64.378   152.115
1636.16     64.918   156.484
1659.95     65.381   159.439
1684.10     65.693   161.820
1708.60     65.907   164.584
1733.45     66.112   168.069
1758.66     66.439   172.110
1784.24     66.948   176.147
1810.19     67.604   179.269
1836.52     68.341  -178.903
1863.24     69.058  -178.371
1890.34     69.676  -178.877
1917.83     70.165   179.879
1945.73     70.502   178.342
1974.03     70.698   176.773
2002.74     70.770   175.602
2031.87     70.756   175.021
2061.43     70.724   175.206
2091.41     70.751   176.013
2121.83     70.882   176.977
2152.69     71.099   177.480
2184.01     71.326   177.169
2215.77     71.477   176.141
2248.00     71.486   174.883
2280.70     71.364   174.068
2313.87     71.186   174.166
2347.53     71.087   175.123
2381.68     71.144   176.211
2416.32     71.318   176.488
2451.46     71.467   175.563
2487.12     71.469   173.906
2523.30     71.283   172.442
2560.00     71.002   171.985
2597.24     70.794   172.599
2635.01     70.772   173.321
2673.34     70.865   172.918
2712.23     70.888   171.114
2751.68     70.689   168.668
2791.70     70.262   166.956
2832.31     69.781   166.892
2873.50     69.488   168.086
2915.30     69.459   168.839
2957.70     69.519   167.858
3000.72     69.421   165.491
3044.37     69.092   163.137
3088.65     68.645   161.976
3133.58     68.321   162.005
3179.16     68.227   161.802
3225.40     68.225   160.123
3272.31     68.107   157.125
3319.91     67.797   154.009
3368.20     67.398   151.817
3417.19     67.109   150.341
3466.89     66.969   148.309
3517.32     66.800   144.985
3568.48     66.418   141.309
3620.39     65.881   139.121
3673.05     65.517   138.755
3726.47     65.495   137.958
3780.67     65.493   135.081
3835.67     65.174   131.870
3891.46     64.730   131.181
3948.06     64.667   132.409
4005.49     64.970   131.948
4063.75     65.149   129.637
4122.86     65.180   128.124
4182.82     65.410   127.139
4243.66     65.741   124.280
4305.39     65.788   120.189
4368.01     65.580   117.180
4431.55     65.361   115.048
4496.01     64.994   113.155
4561.40     64.462   113.739
4627.75     64.368   117.043
4695.06     64.791   118.041
4763.35     65.011   115.853
4832.64     64.867   114.049
4902.93     64.722   113.599
4974.24     64.703   112.604
5046.60     64.512   110.368
5120.00     64.010   108.901
5194.47     63.549   109.460
5270.03     63.252   109.083
5346.68     62.556   108.242
5424.45     61.775   111.339
5503.35     61.511   114.293
5583.40     60.924   115.878
5664.61     60.409   122.136
5747.01     60.750   127.126
5830.60     60.931   127.985
5915.41     60.862   129.762
6001.45     61.012   131.909
6088.74     61.211   131.512
6177.30     60.931   131.121
6267.15     60.844   133.596
6358.31     60.878   133.154
6450.80     60.401   135.542
6544.62     60.789   139.431
6639.82     60.928   139.028
6736.40     61.165   141.985
6834.38     61.816   139.836
6933.79     61.563   136.402
7034.64     61.213   136.084
7136.96     60.731   136.086
7240.77     60.202   139.606
7346.09     60.138   143.254
7452.94     59.902   146.786
7561.35     60.087   151.145
7671.33     59.907   153.502
7782.91     60.128   159.943
7896.12     60.421   161.613
8010.97     60.592   166.047
8127.49     60.861   167.688
8245.71     60.991   171.771
8365.65     61.300   173.967
8487.33     61.530   177.609
8610.78     62.019   179.354
8736.03     62.288  -179.399
8863.09     62.581  -179.563
8992.01     62.452  -178.218
9122.80     62.644  -177.568
9255.50     62.490  -175.130
9390.12     62.675  -174.529
9526.70     62.564  -171.795
9665.27     62.619  -171.083
9805.86     62.446  -167.196
9948.49     62.628  -164.375
10093.2     62.841  -159.463
10240.0     63.411  -157.926
10388.9     63.895  -155.674
10540.1     64.267  -156.020
10693.4     64.602  -155.445
10848.9     64.753  -155.712
11006.7     64.941  -154.286
11166.8     65.134  -153.628
11329.2     65.591  -152.866
11494.0     65.801  -153.203
11661.2     66.088  -154.488
11830.8     66.283  -154.013
12002.9     66.424  -155.662
12177.5     66.833  -157.255
12354.6     66.909  -159.152
12534.3     66.836  -162.844
12716.6     66.816  -165.633
12901.6     66.551  -167.595
13089.2     66.281  -171.027
13279.6     65.918  -174.584
13472.8     65.410  -176.500
13668.8     64.952  -178.856
13867.6     64.448   176.940
14069.3     63.773   172.592
14273.9     62.843   168.650
14481.5     61.447   164.479
14692.2     59.848   162.647
14905.9     58.479   162.875
15122.7     57.128   164.319
15342.7     55.948   167.009
15565.8     55.039   166.948
15792.2     53.834   163.494
16021.9     52.058   161.070
16255.0     50.243   162.118
16491.4     49.226   163.823
16731.3     48.826   157.104
16974.7     48.069   142.719
17221.6     47.292   122.855
17472.1     46.707    98.524
17726.2     46.153    72.601
17984.0     45.458    53.358
18245.6     44.909    43.236
18511.0     44.851    41.227
18780.2     45.736    41.859
19053.4     46.895    39.166
19330.5     47.471    32.928
19611.7     47.234    27.318
19897.0     46.487    26.595
20186.4     46.031    29.165
20480.0     45.579    31.586
20777.9     44.919    36.507
21080.1     45.090    43.820
21386.7     45.359    46.973
21697.8     45.563    47.563
22013.4     45.541    47.939
22333.6     45.403    47.007
22658.4     45.072    44.162
22988.0     44.656    41.035
23322.4     43.985    37.782
23661.6     43.347    31.477
24005.8     42.455    24.682
24355.0     41.121    15.432
24709.2     39.863     5.280
25068.6     38.453    -5.543
25433.2     36.864   -12.812
25803.2     36.287   -16.322
26178.5     36.261   -20.745
26559.3     35.957   -23.657
26945.6     35.840   -22.405
27337.5     36.623   -18.988
27735.2     36.924   -17.731
28138.6     36.879   -12.597
28547.9     37.301    -3.121
28963.1     38.436     8.131
29384.4     40.453    15.161
29811.8     42.502    15.710
30245.4     43.797    10.588
30685.3     44.480     4.244
31131.7     44.633    -2.593
31584.5     44.086   -11.483
32043.9     42.810   -21.001
32510.0     40.612   -26.813
32982.8     38.082   -33.478
33462.6     35.085   -44.073
33949.3     29.754   -75.637
34443.1     26.643  -146.849
34944.1     30.270   166.344
35452.4     33.206   151.625
35968.0     34.711   146.546
36491.2     36.053   144.871
37022.0     36.898   140.366
37560.5     36.812   130.370
38106.8     35.354   122.793
38661.1     32.137   114.190
39223.4     26.801   135.224
39793.9     27.697   163.022
