Freq[Hz]     dBSPL  Phase[Deg]
5.00000    -26.802  -147.292
5.07273    -26.424  -146.893
5.14651    -26.162  -146.544
5.22137    -26.224  -146.334
5.29732    -26.286  -146.123
5.37437    -26.348  -145.913
5.45254    -26.409  -145.703
5.53185    -26.722  -144.215
5.61231    -27.300  -141.377
5.69394    -27.878  -138.538
5.77676    -28.456  -135.700
5.86079    -29.027  -132.724
5.94604    -29.171  -121.646
6.03252    -29.314  -110.569
6.12027    -29.457   -99.492
6.20929    -29.600   -88.414
6.29961    -28.624   -81.291
6.39124    -27.399   -75.045
6.48420    -26.175   -68.798
6.57851    -24.950   -62.552
6.67420    -24.110   -61.221
6.77128    -23.333   -60.688
6.86977    -22.555   -60.155
6.96969    -21.857   -59.696
7.07107    -21.765   -59.798
7.17392    -21.673   -59.901
7.27827    -21.581   -60.003
7.38413    -21.892   -57.881
7.49154    -22.514   -54.040
7.60050    -23.135   -50.200
7.71105    -23.632   -44.506
7.82321    -23.578   -30.672
7.93701    -23.525   -16.837
8.05245    -23.471    -3.002
8.16958    -21.968     4.847
8.28841    -20.412    12.472
8.40896    -18.855    20.097
8.53128    -17.807    22.919
8.65537    -16.825    25.121
8.78126    -15.843    27.322
8.90899    -15.394    31.705
9.03857    -14.979    36.231
9.17004    -14.501    41.304
9.30342    -13.511    50.731
9.43874    -12.521    60.158
9.57603    -11.141    67.849
9.71532     -9.163    72.888
9.85663     -7.186    77.927
10.0000     -5.380    78.160
10.1455     -3.621    77.054
10.2930     -2.002    75.194
10.4427     -0.773    71.231
10.5946      0.456    67.268
10.7487      1.277    62.412
10.9051      2.018    57.378
11.0637      2.516    52.404
11.2246      2.756    47.494
11.3879      2.881    42.981
11.5535      2.589    39.913
11.7216      2.291    36.935
11.8921      1.643    39.274
12.0650      0.994    41.612
12.2405      1.114    50.302
12.4186      1.332    59.811
12.5992      2.716    65.685
12.7825      4.359    70.753
12.9684      5.985    69.511
13.1570      7.606    66.799
13.3484      8.792    60.688
13.5426      9.906    54.026
13.7395     10.508    45.535
13.9394     11.027    36.863
14.1421     11.065    27.349
14.3478     10.909    17.742
14.5565     10.332     7.935
14.7683      9.286    -1.483
14.9831      7.878   -10.600
15.2010      5.264   -16.234
15.4221      2.152   -15.980
15.6464     -2.243     7.516
15.8740     -2.062    34.545
16.1049      1.774    64.395
16.3392      4.790    61.859
16.5768      7.156    56.052
16.8179      8.622    47.251
17.0626      9.292    37.964
17.3107      9.602    29.080
17.5625      9.519    20.905
17.8180      8.973    15.318
18.0771      8.274    12.222
18.3401      7.487    11.949
18.6068      6.936    16.439
18.8775      6.951    23.018
19.1521      7.442    29.951
19.4306      8.385    36.137
19.7133      9.676    40.294
20.0000     11.115    42.659
20.2909     12.610    43.301
20.5860     14.081    42.224
20.8855     15.434    39.565
21.1893     16.518    35.721
21.4975     17.321    31.816
21.8102     17.873    28.667
22.1274     18.250    27.022
22.4492     18.595    27.347
22.7758     19.096    29.467
23.1071     19.898    32.266
23.4432     20.971    34.154
23.7841     22.116    34.272
24.1301     23.151    33.159
24.4811     24.030    31.636
24.8372     24.783    30.357
25.1984     25.488    29.605
25.5649     26.219    29.224
25.9368     26.998    28.815
26.3141     27.799    28.076
26.6968     28.574    27.007
27.0851     29.306    25.839
27.4791     30.014    24.803
27.8788     30.739    23.902
28.2843     31.502    22.918
28.6957     32.283    21.656
29.1131     33.047    20.124
29.5365     33.776    18.521
29.9661     34.480    17.080
30.4020     35.192    15.889
30.8442     35.946    14.819
31.2929     36.731    13.640
31.7480     37.519    12.290
32.2098     38.291    10.865
32.6783     39.046     9.531
33.1536     39.806     8.314
33.6359     40.584     7.097
34.1251     41.372     5.731
34.6215     42.147     4.194
35.1250     42.906     2.584
35.6359     43.655     0.959
36.1543     44.414    -0.733
36.6802     45.184    -2.600
37.2137     45.950    -4.684
37.7550     46.711    -6.899
38.3041     47.479    -9.221
38.8613     48.260   -11.692
39.4265     49.050   -14.406
40.0000     49.828   -17.297
40.5818     50.597   -20.278
41.1721     51.370   -23.380
41.7710     52.135   -26.724
42.3785     52.847   -30.309
42.9949     53.490   -33.773
43.6203     54.106   -36.832
44.2548     54.767   -39.589
44.8985     55.486   -42.601
45.5515     56.204   -46.116
46.2141     56.873   -49.953
46.8863     57.500   -53.842
47.5683     58.116   -57.779
48.2602     58.720   -61.893
48.9621     59.297   -66.174
49.6743     59.842   -70.541
50.3968     60.361   -74.955
51.1299     60.848   -79.380
51.8736     61.303   -83.766
52.6281     61.732   -88.098
53.3936     62.129   -92.381
54.1702     62.490   -96.572
54.9581     62.820  -100.644
55.7575     63.121  -104.631
56.5685     63.392  -108.555
57.3914     63.632  -112.413
58.2261     63.847  -116.218
59.0730     64.039  -119.961
59.9323     64.215  -123.603
60.8040     64.390  -127.108
61.6884     64.579  -130.487
62.5857     64.781  -133.782
63.4960     64.988  -136.969
64.4196     65.193  -140.005
65.3566     65.391  -142.881
66.3073     65.578  -145.620
67.2717     65.752  -148.238
68.2502     65.915  -150.735
69.2429     66.080  -153.107
70.2501     66.264  -155.430
71.2719     66.466  -157.770
72.3086     66.673  -160.159
73.3603     66.865  -162.506
74.4274     67.055  -164.723
75.5099     67.239  -167.030
76.6083     67.389  -169.337
77.7226     67.550  -171.483
78.8531     67.755  -173.725
80.0000     67.993  -176.112
81.1636     68.263  -178.573
82.3442     68.554   178.935
83.5419     68.844   176.441
84.7570     69.113   173.980
85.9899     69.360   171.525
87.2406     69.594   169.050
88.5096     69.843   166.478
89.7970     70.114   163.646
91.1031     70.380   160.579
92.4282     70.612   157.500
93.7726     70.814   154.621
95.1366     70.998   151.991
96.5204     71.183   149.463
97.9243     71.371   146.886
99.3486     71.572   144.182
100.794     71.776   141.249
102.260     71.968   138.175
103.747     72.147   135.063
105.256     72.310   131.902
106.787     72.447   128.693
108.340     72.546   125.400
109.916     72.594   122.142
111.515     72.629   119.175
113.137     72.700   116.246
114.783     72.769   113.310
116.452     72.813   110.540
118.146     72.838   107.926
119.865     72.850   105.260
121.608     72.840   102.468
123.377     72.836    99.699
125.171     72.842    96.945
126.992     72.831    94.303
128.839     72.794    91.724
130.713     72.729    89.119
132.615     72.648    86.605
134.543     72.577    84.321
136.500     72.532    82.135
138.486     72.475    80.083
140.500     72.383    77.814
142.544     72.253    75.484
144.617     72.122    73.786
146.721     72.051    72.504
148.855     72.025    70.871
151.020     71.982    68.824
153.217     71.903    66.808
155.445     71.840    64.905
157.706     71.726    62.759
160.000     71.479    61.171
162.327     71.313    60.377
164.688     71.221    59.439
167.084     71.225    58.503
169.514     71.237    56.074
171.980     70.951    54.129
174.481     70.700    53.935
177.019     70.574    53.771
179.594     70.524    53.457
182.206     70.512    52.996
184.856     70.538    52.411
187.545     70.564    51.531
190.273     70.616    50.293
193.041     70.635    48.672
195.849     70.614    47.432
198.697     70.570    45.841
201.587     70.439    44.088
204.520     70.237    42.768
207.494     70.043    42.023
210.512     69.918    41.988
213.574     69.876    41.390
216.681     69.824    40.755
219.833     69.686    39.858
223.030     69.568    39.534
226.274     69.508    39.521
229.565     69.520    38.988
232.905     69.447    38.262
236.292     69.406    38.174
239.729     69.404    38.006
243.216     69.460    37.201
246.754     69.369    35.842
250.343     69.172    35.195
253.984     69.111    35.332
257.678     69.075    35.127
261.426     69.065    34.615
265.229     68.979    33.526
269.087     68.700    32.823
273.001     68.615    34.026
276.972     68.681    34.323
281.000     68.630    34.059
285.088     68.625    34.279
289.234     68.669    34.638
293.441     68.772    33.697
297.709     68.654    32.702
302.040     68.549    32.111
306.433     68.242    32.353
310.890     68.292    33.939
315.412     68.357    32.927
320.000     68.158    32.561
324.655     67.965    33.327
329.377     67.968    34.990
334.168     68.011    35.089
339.028     67.955    36.652
343.959     68.214    36.494
348.962     68.163    35.878
354.038     68.026    36.501
359.188     68.142    37.247
364.412     68.083    37.343
369.713     68.103    38.638
375.090     68.237    38.793
380.546     68.300    39.300
386.081     68.478    39.085
391.697     68.457    38.507
397.394     68.444    37.941
403.175     68.371    38.109
409.039     68.376    38.521
414.989     68.428    38.617
421.025     68.449    38.523
427.149     68.441    38.079
433.362     68.414    38.025
439.665     68.419    37.659
446.060     68.359    37.339
452.548     68.297    37.194
459.131     68.237    36.989
465.809     68.190    36.910
472.584     68.128    37.001
479.458     68.068    37.129
486.432     68.009    37.320
493.507     67.945    37.656
500.686     67.893    38.106
507.968     67.841    38.594
515.357     67.816    39.222
522.853     67.790    39.925
530.458     67.785    40.642
538.174     67.805    41.332
546.002     67.854    42.042
553.943     67.910    42.722
562.001     67.994    43.296
570.175     68.082    43.753
578.469     68.189    44.038
586.883     68.307    44.174
595.419     68.412    44.176
604.080     68.517    43.961
612.866     68.611    43.644
621.780     68.677    43.156
630.824     68.729    42.506
640.000     68.744    41.854
649.309     68.734    41.144
658.753     68.686    40.379
668.335     68.597    39.670
678.056     68.480    39.034
687.919     68.318    38.592
697.925     68.126    38.345
708.077     67.912    38.383
718.376     67.684    38.781
728.825     67.438    39.585
739.426     67.203    40.820
750.181     66.997    42.451
761.093     66.843    44.439
772.163     66.763    46.680
783.394     66.760    49.078
794.789     66.830    51.441
806.349     66.976    53.508
818.078     67.184    55.305
829.977     67.415    56.640
842.050     67.667    57.493
854.298     67.906    57.972
866.724     68.122    58.099
879.330     68.295    57.939
892.120     68.429    57.588
905.097     68.512    57.137
918.262     68.556    56.745
931.618     68.548    56.491
945.169     68.510    56.441
958.917     68.455    56.665
972.864     68.399    57.183
987.015     68.362    58.009
1001.37     68.362    59.053
1015.94     68.419    60.222
1030.71     68.528    61.284
1045.71     68.683    62.076
1060.92     68.886    62.451
1076.35     69.094    62.385
1092.00     69.283    61.777
1107.89     69.428    60.675
1124.00     69.504    59.184
1140.35     69.493    57.430
1156.94     69.366    55.592
1173.77     69.121    53.842
1190.84     68.753    52.490
1208.16     68.268    51.901
1225.73     67.689    52.406
1243.56     67.085    54.456
1261.65     66.577    58.174
1280.00     66.326    63.268
1298.62     66.409    68.791
1317.51     66.820    73.399
1336.67     67.434    76.134
1356.11     68.101    76.884
1375.84     68.679    75.871
1395.85     69.098    73.508
1416.15     69.316    70.342
1436.75     69.313    66.806
1457.65     69.087    63.312
1478.85     68.642    60.342
1500.36     68.011    58.357
1522.19     67.251    57.821
1544.33     66.459    59.066
1566.79     65.762    61.995
1589.58     65.276    65.839
1612.70     65.005    69.622
1636.16     64.847    72.610
1659.95     64.634    74.737
1684.10     64.274    76.726
1708.60     63.711    79.593
1733.45     63.058    84.455
1758.66     62.544    92.279
1784.24     62.493   102.132
1810.19     63.058   111.466
1836.52     64.026   118.172
1863.24     65.086   121.801
1890.34     66.019   123.107
1917.83     66.759   123.045
1945.73     67.299   122.367
1974.03     67.665   121.627
2002.74     67.895   121.259
2031.87     68.056   121.559
2061.43     68.222   122.523
2091.41     68.479   123.890
2121.83     68.854   125.150
2152.69     69.306   125.587
2184.01     69.752   124.927
2215.77     70.093   123.361
2248.00     70.260   121.428
2280.70     70.258   119.811
2313.87     70.162   119.108
2347.53     70.099   119.391
2381.68     70.171   119.994
2416.32     70.355   119.931
2451.46     70.519   118.654
2487.12     70.510   116.558
2523.30     70.248   114.627
2560.00     69.799   114.102
2597.24     69.372   115.607
2635.01     69.211   118.326
2673.34     69.338   120.322
2712.23     69.519   120.433
2751.68     69.495   119.198
2791.70     69.187   118.310
2832.31     68.741   119.314
2873.50     68.469   122.200
2915.30     68.547   124.996
2957.70     68.761   125.745
3000.72     68.781   124.724
3044.37     68.455   123.890
3088.65     67.948   125.177
3133.58     67.636   128.790
3179.16     67.731   132.405
3225.40     67.993   133.860
3272.31     68.074   133.580
3319.91     67.876   133.494
3368.20     67.584   135.068
3417.19     67.476   137.937
3466.89     67.618   140.303
3517.32     67.793   141.076
3568.48     67.787   141.124
3620.39     67.621   142.077
3673.05     67.558   144.408
3726.47     67.761   146.461
3780.67     68.023   146.804
3835.67     68.099   146.385
3891.46     68.101   146.730
3948.06     68.257   147.083
4005.49     68.413   145.767
4063.75     68.257   143.782
4122.86     67.899   143.697
4182.82     67.770   145.127
4243.66     67.827   145.294
4305.39     67.689   144.689
4368.01     67.486   145.651
4431.55     67.586   146.949
4496.01     67.769   146.216
4561.40     67.709   144.653
4627.75     67.537   143.944
4695.06     67.402   143.499
4763.35     67.213   143.108
4832.64     67.006   143.528
4902.93     66.953   144.530
4974.24     67.056   144.730
5046.60     67.071   143.786
5120.00     66.950   143.709
5194.47     67.088   144.404
5270.03     67.326   142.497
5346.68     67.105   140.098
5424.45     66.915   140.862
5503.35     67.168   140.434
5583.40     67.125   137.654
5664.61     66.870   137.032
5747.01     66.913   136.513
5830.60     66.792   134.168
5915.41     66.354   133.501
6001.45     66.188   134.982
6088.74     66.224   134.411
6177.30     65.803   134.179
6267.15     65.741   137.402
6358.31     65.975   136.867
6450.80     65.664   137.308
6544.62     65.844   139.007
6639.82     65.612   137.533
6736.40     65.225   142.069
6834.38     65.742   145.232
6933.79     66.008   145.773
7034.64     66.394   146.192
7136.96     66.490   144.184
7240.77     66.293   144.832
7346.09     66.440   145.178
7452.94     66.147   145.041
7561.35     66.181   147.779
7671.33     66.144   147.716
7782.91     66.133   150.330
7896.12     66.123   149.797
8010.97     65.882   152.938
8127.49     65.936   154.081
8245.71     65.811   157.867
8365.65     66.132   159.968
8487.33     66.289   161.980
8610.78     66.573   162.351
8736.03     66.539   163.304
8863.09     66.682   163.554
8992.01     66.423   165.103
9122.80     66.573   166.308
9255.50     66.332   169.150
9390.12     66.624   170.254
9526.70     66.485   172.969
9665.27     66.710   173.564
9805.86     66.569   176.590
9948.49     66.776   178.155
10093.2     66.916  -178.090
10240.0     67.330  -177.621
10388.9     67.720  -175.877
10540.1     67.948  -177.757
10693.4     68.063  -178.209
10848.9     67.889  -179.358
11006.7     67.796  -178.642
11166.8     67.533  -178.829
11329.2     67.408  -177.936
11494.0     66.935  -175.894
11661.2     66.747  -173.499
11830.8     66.794  -168.402
12002.9     66.867  -166.066
12177.5     67.341  -164.320
12354.6     67.585  -162.736
12534.3     67.604  -163.334
12716.6     67.786  -162.956
12901.6     67.953  -162.028
13089.2     67.984  -163.299
13279.6     67.882  -164.976
13472.8     67.650  -164.825
13668.8     67.475  -163.513
13867.6     67.544  -163.688
14069.3     67.576  -165.721
14273.9     67.345  -167.916
14481.5     66.771  -170.157
14692.2     66.029  -171.208
14905.9     65.485  -171.242
15122.7     64.891  -171.289
15342.7     64.194  -170.156
15565.8     63.607  -169.533
15792.2     62.947  -169.827
16021.9     62.249  -169.350
16255.0     61.582  -169.311
16491.4     60.718  -169.491
16731.3     59.856  -169.638
16974.7     58.797  -171.157
17221.6     57.443  -171.738
17472.1     55.982  -171.420
17726.2     54.384  -170.350
17984.0     52.655  -168.579
18245.6     50.510  -165.658
18511.0     48.192  -156.822
18780.2     47.057  -144.002
19053.4     46.770  -139.493
19330.5     45.685  -141.990
19611.7     43.746  -145.661
19897.0     41.363  -152.189
20186.4     38.417  -166.025
20480.0     34.774   165.741
20777.9     33.197   127.941
21080.1     34.908   101.835
21386.7     36.892    92.887
21697.8     38.760    93.086
22013.4     40.424    99.110
22333.6     42.395   102.290
22658.4     43.824   103.538
22988.0     45.021   106.559
23322.4     46.192   107.330
23661.6     47.120   106.428
24005.8     47.442   104.291
24355.0     47.126   104.745
24709.2     46.854   108.933
25068.6     46.708   113.888
25433.2     46.827   119.978
25803.2     47.237   124.603
26178.5     47.562   127.197
26559.3     47.783   129.324
26945.6     48.018   130.901
27337.5     48.256   129.860
27735.2     48.069   128.287
28138.6     47.911   126.192
28547.9     47.586   123.157
28963.1     47.088   119.238
29384.4     46.560   114.463
29811.8     45.971   109.153
30245.4     45.560   102.479
30685.3     45.457    93.591
31131.7     45.324    81.905
31584.5     45.333    68.734
32043.9     45.279    55.267
32510.0     45.163    43.306
32982.8     45.117    33.706
33462.6     45.260    24.600
33949.3     45.231    15.206
34443.1     44.824     6.657
34944.1     44.318    -0.800
35452.4     43.566    -9.595
35968.0     42.338   -17.797
36491.2     40.728   -28.777
37022.0     38.161   -43.350
37560.5     34.419   -63.330
38106.8     28.758   -95.574
38661.1     26.537  -160.755
39223.4     29.047   135.265
39793.9     28.146   104.361
