Freq[Hz]     dBSPL  Phase[Deg]
Freq[Hz]     dBSPL  Phase[Deg]
5.00000     -7.855   -18.314
5.07273     -7.512   -18.408
5.14651     -7.143   -18.507
5.22137     -6.732   -18.612
5.29732     -6.306   -18.720
5.37437     -5.861   -18.831
5.45254     -5.417   -18.944
5.53185     -4.972   -19.058
5.61231     -4.527   -19.174
5.69394     -4.082   -19.292
5.77676     -3.638   -19.411
5.86079     -3.193   -19.533
5.94604     -2.748   -19.656
6.03252     -2.304   -19.781
6.12027     -1.859   -19.907
6.20929     -1.414   -20.036
6.29961     -0.969   -20.166
6.39124     -0.525   -20.299
6.48420     -0.080   -20.433
6.57851      0.365   -20.569
6.67420      0.810   -20.707
6.77128      1.254   -20.847
6.86977      1.699   -20.990
6.96969      2.144   -21.134
7.07107      2.589   -21.280
7.17392      3.034   -21.429
7.27827      3.478   -21.580
7.38413      3.923   -21.733
7.49154      4.368   -21.888
7.60050      4.813   -22.045
7.71105      5.258   -22.205
7.82321      5.703   -22.367
7.93701      6.148   -22.532
8.05245      6.593   -22.699
8.16958      7.038   -22.868
8.28841      7.482   -23.040
8.40896      7.927   -23.214
8.53128      8.372   -23.391
8.65537      8.817   -23.571
8.78126      9.262   -23.753
8.90899      9.707   -23.938
9.03857     10.152   -24.125
9.17004     10.597   -24.316
9.30342     11.043   -24.509
9.43874     11.488   -24.705
9.57603     11.933   -24.903
9.71532     12.378   -25.105
9.85663     12.823   -25.310
10.0000     13.268   -25.518
10.1455     13.713   -25.729
10.2930     14.159   -25.942
10.4427     14.604   -26.160
10.5946     15.049   -26.380
10.7487     15.494   -26.603
10.9051     15.940   -26.830
11.0637     16.385   -27.060
11.2246     16.830   -27.294
11.3879     17.276   -27.531
11.5535     17.721   -27.772
11.7216     18.167   -28.016
11.8921     18.612   -28.264
12.0650     19.058   -28.515
12.2405     19.503   -28.770
12.4186     19.949   -29.029
12.5992     20.394   -29.292
12.7825     20.840   -29.559
12.9684     21.286   -29.830
13.1570     21.732   -30.105
13.3484     22.177   -30.383
13.5426     22.623   -30.667
13.7395     23.069   -30.954
13.9394     23.515   -31.246
14.1421     23.961   -31.542
14.3478     24.407   -31.842
14.5565     24.853   -32.147
14.7683     25.299   -32.457
14.9831     25.745   -32.771
15.2010     26.192   -33.090
15.4221     26.638   -33.414
15.6464     27.084   -33.743
15.8740     27.531   -34.076
16.1049     27.977   -34.415
16.3392     28.424   -34.759
16.5768     28.870   -35.109
16.8179     29.317   -35.463
17.0626     29.764   -35.823
17.3107     30.211   -36.189
17.5625     30.658   -36.560
17.8180     31.105   -36.937
18.0771     31.552   -37.320
18.3401     31.999   -37.709
18.6068     32.446   -38.104
18.8775     32.894   -38.505
19.1521     33.341   -38.912
19.4306     33.789   -39.325
19.7133     34.243   -39.734
20.0000     34.713   -40.124
20.2909     35.213   -40.520
20.5860     35.747   -40.989
20.8855     36.288   -41.707
21.1893     36.811   -42.734
21.4975     37.288   -43.877
21.8102     37.695   -44.893
22.1274     38.051   -45.583
22.4492     38.407   -45.845
22.7758     38.800   -45.762
23.1071     39.244   -45.609
23.4432     39.740   -45.649
23.7841     40.260   -45.961
24.1301     40.768   -46.524
24.4811     41.255   -47.274
24.8372     41.720   -48.147
25.1984     42.175   -49.071
25.5649     42.633   -49.964
25.9368     43.102   -50.827
26.3141     43.589   -51.675
26.6968     44.083   -52.564
27.0851     44.572   -53.547
27.4791     45.051   -54.589
27.8788     45.511   -55.664
28.2843     45.958   -56.751
28.6957     46.400   -57.791
29.1131     46.846   -58.787
29.5365     47.306   -59.774
29.9661     47.781   -60.771
30.4020     48.266   -61.824
30.8442     48.754   -62.954
31.2929     49.231   -64.143
31.7480     49.699   -65.382
32.2098     50.161   -66.643
32.6783     50.620   -67.881
33.1536     51.092   -69.140
33.6359     51.581   -70.482
34.1251     52.080   -71.837
34.6215     52.564   -73.325
35.1250     53.020   -74.873
35.6359     53.457   -76.223
36.1543     53.886   -77.499
36.6802     54.325   -78.800
37.2137     54.793   -80.093
37.7550     55.287   -81.516
38.3041     55.790   -83.111
38.8613     56.281   -84.797
39.4265     56.756   -86.444
40.0000     57.222   -88.036
40.5818     57.686   -89.635
41.1721     58.153   -91.285
41.7710     58.624   -92.995
42.3785     59.095   -94.770
42.9949     59.566   -96.602
43.6203     60.038   -98.443
44.2548     60.508  -100.312
44.8985     60.976  -102.216
45.5515     61.448  -104.132
46.2141     61.916  -106.106
46.8863     62.380  -108.134
47.5683     62.836  -110.176
48.2602     63.288  -112.259
48.9621     63.741  -114.402
49.6743     64.194  -116.594
50.3968     64.648  -118.871
51.1299     65.104  -121.218
51.8736     65.554  -123.605
52.6281     65.996  -126.005
53.3936     66.432  -128.397
54.1702     66.864  -130.840
54.9581     67.289  -133.382
55.7575     67.707  -135.996
56.5685     68.117  -138.702
57.3914     68.518  -141.464
58.2261     68.911  -144.222
59.0730     69.296  -146.996
59.9323     69.674  -149.807
60.8040     70.047  -152.656
61.6884     70.411  -155.565
62.5857     70.767  -158.508
63.4960     71.109  -161.503
64.4196     71.433  -164.552
65.3566     71.741  -167.619
66.3073     72.034  -170.712
67.2717     72.318  -173.796
68.2502     72.596  -176.850
69.2429     72.868  -179.912
70.2501     73.131   177.003
71.2719     73.378   173.872
72.3086     73.606   170.703
73.3603     73.813   167.541
74.4274     74.005   164.417
75.5099     74.187   161.352
76.6083     74.361   158.344
77.7226     74.528   155.368
78.8531     74.684   152.413
80.0000     74.825   149.483
81.1636     74.951   146.570
82.3442     75.067   143.702
83.5419     75.174   140.885
84.7570     75.273   138.097
85.9899     75.365   135.357
87.2406     75.449   132.683
88.5096     75.523   130.059
89.7970     75.589   127.486
91.1031     75.650   124.977
92.4282     75.707   122.519
93.7726     75.760   120.100
95.1366     75.808   117.721
96.5204     75.850   115.379
97.9243     75.887   113.076
99.3486     75.916   110.816
100.794     75.938   108.603
102.260     75.957   106.447
103.747     75.969   104.354
105.256     75.978   102.324
106.787     75.987   100.355
108.340     75.999    98.419
109.916     76.010    96.525
111.515     76.022    94.655
113.137     76.032    92.822
114.783     76.038    91.016
116.452     76.041    89.229
118.146     76.042    87.451
119.865     76.037    85.714
121.608     76.025    83.994
123.377     76.008    82.342
125.171     75.986    80.785
126.992     75.967    79.298
128.839     75.954    77.856
130.713     75.947    76.464
132.615     75.945    75.056
134.543     75.944    73.673
136.500     75.945    72.297
138.486     75.943    70.908
140.500     75.938    69.548
142.544     75.932    68.196
144.617     75.925    66.856
146.721     75.917    65.547
148.855     75.907    64.240
151.020     75.896    62.967
153.217     75.882    61.713
155.445     75.866    60.507
157.706     75.854    59.337
160.000     75.842    58.175
162.327     75.831    57.070
164.688     75.824    55.988
167.084     75.818    54.911
169.514     75.816    53.874
171.980     75.822    52.824
174.481     75.833    51.728
177.019     75.840    50.589
179.594     75.841    49.441
182.206     75.836    48.294
184.856     75.825    47.169
187.545     75.810    46.080
190.273     75.794    45.025
193.041     75.778    44.007
195.849     75.763    43.019
198.697     75.748    42.061
201.587     75.739    41.111
204.520     75.727    40.122
207.494     75.704    39.158
210.512     75.677    38.276
213.574     75.650    37.523
216.681     75.644    36.864
219.833     75.666    36.164
223.030     75.700    35.306
226.274     75.727    34.233
229.565     75.726    33.048
232.905     75.689    31.916
236.292     75.636    30.970
239.729     75.584    30.242
243.216     75.553    29.652
246.754     75.544    29.061
250.343     75.541    28.428
253.984     75.543    27.779
257.678     75.554    27.117
261.426     75.570    26.400
265.229     75.590    25.613
269.087     75.602    24.744
273.001     75.602    23.797
276.972     75.569    22.883
281.000     75.526    22.176
285.088     75.497    21.642
289.234     75.495    21.184
293.441     75.521    20.659
297.709     75.562    19.976
302.040     75.593    19.123
306.433     75.611    18.202
310.890     75.603    17.240
315.412     75.572    16.386
320.000     75.541    15.725
324.655     75.521    15.093
329.377     75.504    14.523
334.168     75.509    14.013
339.028     75.525    13.365
343.959     75.528    12.701
348.962     75.538    12.053
354.038     75.549    11.368
359.188     75.544    10.645
364.412     75.545    10.060
369.713     75.563     9.412
375.090     75.572     8.670
380.546     75.581     8.015
386.081     75.598     7.276
391.697     75.608     6.545
397.394     75.614     5.758
403.175     75.594     4.937
409.039     75.568     4.425
414.989     75.573     3.945
421.025     75.606     3.456
427.149     75.652     2.858
433.362     75.712     2.052
439.665     75.737     1.007
446.060     75.715    -0.046
452.548     75.686    -0.792
459.131     75.668    -1.445
465.809     75.669    -2.058
472.584     75.713    -2.711
479.458     75.748    -3.814
486.432     75.719    -5.088
493.507     75.625    -6.037
500.686     75.542    -6.516
507.968     75.501    -6.781
515.357     75.490    -7.031
522.853     75.507    -7.180
530.458     75.583    -7.569
538.174     75.644    -8.272
546.002     75.711    -9.139
553.943     75.752   -10.310
562.001     75.749   -11.532
570.175     75.716   -12.627
578.469     75.635   -13.551
586.883     75.558   -14.017
595.419     75.538   -14.239
604.080     75.535   -14.627
612.866     75.567   -15.313
621.780     75.563   -16.000
630.824     75.558   -16.581
640.000     75.569   -17.158
649.309     75.590   -17.502
658.753     75.673   -18.117
668.335     75.738   -19.203
678.056     75.769   -20.467
687.919     75.761   -21.810
697.925     75.686   -22.800
708.077     75.642   -23.303
718.376     75.660   -23.831
728.825     75.655   -24.525
739.426     75.668   -25.135
750.181     75.708   -25.815
761.093     75.729   -26.720
772.163     75.746   -27.402
783.394     75.808   -28.166
794.789     75.864   -29.321
806.349     75.893   -30.542
818.078     75.921   -31.891
829.977     75.887   -33.379
842.050     75.830   -34.495
854.298     75.803   -35.422
866.724     75.782   -36.369
879.330     75.764   -37.253
892.120     75.787   -38.208
905.097     75.807   -39.402
918.262     75.790   -40.735
931.618     75.745   -42.010
945.169     75.712   -43.128
958.917     75.666   -44.161
972.864     75.658   -45.195
987.015     75.664   -46.489
1001.37     75.631   -47.813
1015.94     75.605   -49.144
1030.71     75.574   -50.622
1045.71     75.489   -51.842
1060.92     75.435   -52.871
1076.35     75.395   -54.017
1092.00     75.309   -55.275
1107.89     75.215   -56.364
1124.00     75.162   -57.223
1140.35     75.130   -58.751
1156.94     74.931   -59.618
1173.77     74.865   -59.308
1190.84     74.961   -59.459
1208.16     75.051   -60.153
1225.73     75.180   -61.518
1243.56     75.234   -63.517
1261.65     75.166   -65.193
1280.00     75.125   -66.606
1298.62     75.089   -67.723
1317.51     75.086   -68.768
1336.67     75.141   -70.109
1356.11     75.139   -71.726
1375.84     75.128   -73.228
1395.85     75.079   -74.922
1416.15     74.961   -76.241
1436.75     74.920   -77.144
1457.65     74.888   -78.321
1478.85     74.882   -79.236
1500.36     74.933   -80.172
1522.19     74.990   -81.626
1544.33     75.087   -82.832
1566.79     75.195   -84.508
1589.58     75.298   -86.481
1612.70     75.398   -88.570
1636.16     75.443   -91.120
1659.95     75.489   -93.555
1684.10     75.469   -96.154
1708.60     75.443   -98.688
1733.45     75.433  -100.993
1758.66     75.401  -103.313
1784.24     75.387  -105.460
1810.19     75.375  -107.667
1836.52     75.346  -109.949
1863.24     75.321  -112.229
1890.34     75.284  -114.962
1917.83     75.263  -118.005
1945.73     75.237  -121.304
1974.03     75.102  -124.943
2002.74     74.860  -127.937
2031.87     74.684  -129.940
2061.43     74.570  -132.243
2091.41     74.414  -134.766
2121.83     74.265  -136.934
2152.69     74.117  -138.911
2184.01     74.038  -140.597
2215.77     74.033  -142.499
2248.00     74.027  -144.849
2280.70     74.040  -147.440
2313.87     74.075  -150.351
2347.53     74.060  -153.486
2381.68     74.011  -156.384
2416.32     73.910  -159.037
2451.46     73.811  -161.147
2487.12     73.763  -162.942
2523.30     73.794  -164.821
2560.00     73.902  -167.081
2597.24     74.032  -169.815
2635.01     74.121  -173.004
2673.34     74.151  -176.479
2712.23     74.095  -179.940
2751.68     74.000   176.900
2791.70     73.922   174.135
2832.31     73.911   171.767
2873.50     73.996   169.511
2915.30     74.165   166.972
2957.70     74.368   164.023
3000.72     74.548   160.524
3044.37     74.637   156.581
3088.65     74.622   152.652
3133.58     74.527   149.282
3179.16     74.525   146.638
3225.40     74.581   143.498
3272.31     74.578   140.476
3319.91     74.593   137.779
3368.20     74.646   135.173
3417.19     74.728   132.430
3466.89     74.819   129.432
3517.32     74.895   126.277
3568.48     74.943   123.130
3620.39     74.972   120.199
3673.05     75.016   117.470
3726.47     75.089   114.753
3780.67     75.175   111.874
3835.67     75.256   108.787
3891.46     75.308   105.555
3948.06     75.339   102.365
4005.49     75.369    99.267
4063.75     75.408    96.141
4122.86     75.434    92.850
4182.82     75.410    89.509
4243.66     75.318    86.430
4305.39     75.195    83.881
4368.01     75.097    81.859
4431.55     75.061    80.132
4496.01     75.092    78.359
4561.40     75.157    76.376
4627.75     75.221    74.281
4695.06     75.291    72.253
4763.35     75.380    70.259
4832.64     75.493    68.193
4902.93     75.625    65.960
4974.24     75.756    63.457
5046.60     75.872    60.645
5120.00     75.953    57.595
5194.47     75.984    54.519
5270.03     75.981    51.605
5346.68     75.964    48.877
5424.45     75.946    46.249
5503.35     75.930    43.623
5583.40     75.911    40.923
5664.61     75.870    38.162
5747.01     75.796    35.475
5830.60     75.698    32.997
5915.41     75.598    30.712
6001.45     75.508    28.449
6088.74     75.402    26.085
6177.30     75.249    23.722
6267.15     75.040    21.605
6358.31     74.801    19.948
6450.80     74.580    18.797
6544.62     74.417    18.007
6639.82     74.323    17.313
6736.40     74.274    16.576
6834.38     74.257    15.832
6933.79     74.278    15.009
7034.64     74.317    13.977
7136.96     74.358    12.827
7240.77     74.413    11.608
7346.09     74.476    10.231
7452.94     74.534     8.728
7561.35     74.596     7.090
7671.33     74.657     5.217
7782.91     74.695     3.172
7896.12     74.715     1.043
8010.97     74.710    -1.156
8127.49     74.675    -3.346
8245.71     74.620    -5.531
8365.65     74.527    -7.750
8487.33     74.385    -9.828
8610.78     74.224   -11.631
8736.03     74.066   -13.281
8863.09     73.902   -14.890
8992.01     73.727   -16.420
9122.80     73.546   -17.884
9255.50     73.349   -19.334
9390.12     73.119   -20.650
9526.70     72.862   -21.621
9665.27     72.606   -22.007
9805.86     72.408   -21.737
9948.49     72.321   -21.053
10093.2     72.366   -20.312
10240.0     72.528   -19.980
10388.9     72.745   -20.339
10540.1     72.969   -21.320
10693.4     73.173   -22.875
10848.9     73.328   -24.900
11006.7     73.412   -27.199
11166.8     73.421   -29.537
11329.2     73.378   -31.736
11494.0     73.302   -33.781
11661.2     73.207   -35.621
11830.8     73.118   -37.309
12002.9     73.029   -38.965
12177.5     72.930   -40.529
12354.6     72.831   -42.001
12534.3     72.727   -43.409
12716.6     72.625   -44.688
12901.6     72.539   -45.952
13089.2     72.461   -47.290
13279.6     72.392   -48.697
13472.8     72.325   -50.282
13668.8     72.244   -51.961
13867.6     72.160   -53.662
14069.3     72.070   -55.407
14273.9     71.976   -57.134
14481.5     71.883   -58.901
14692.2     71.783   -60.717
14905.9     71.679   -62.562
15122.7     71.565   -64.453
15342.7     71.448   -66.337
15565.8     71.339   -68.206
15792.2     71.237   -70.100
16021.9     71.144   -72.054
16255.0     71.054   -74.075
16491.4     70.961   -76.192
16731.3     70.857   -78.424
16974.7     70.725   -80.791
17221.6     70.551   -83.303
17472.1     70.313   -85.877
17726.2     69.991   -88.380
17984.0     69.579   -90.612
18245.6     69.086   -92.347
18511.0     68.543   -93.408
18780.2     68.002   -93.753
19053.4     67.509   -93.530
19330.5     67.100   -92.990
19611.7     66.788   -92.356
19897.0     66.559   -91.775
20186.4     66.386   -91.308
20480.0     66.245   -90.935
20777.9     66.117   -90.584
21080.1     65.999   -90.122
21386.7     65.898   -89.492
21697.8     65.829   -88.728
22013.4     65.812   -87.802
22333.6     65.866   -86.805
22658.4     66.006   -85.998
22988.0     66.221   -85.612
23322.4     66.470   -85.824
23661.6     66.719   -86.663
24005.8     66.941   -88.014
24355.0     67.122   -89.745
24709.2     67.260   -91.706
25068.6     67.357   -93.747
25433.2     67.418   -95.782
25803.2     67.456   -97.769
26178.5     67.487   -99.738
26559.3     67.526  -101.816
26945.6     67.574  -104.111
27337.5     67.617  -106.707
27735.2     67.618  -109.603
28138.6     67.545  -112.582
28547.9     67.392  -115.365
28963.1     67.180  -117.773
29384.4     66.944  -119.760
29811.8     66.721  -121.413
30245.4     66.532  -122.906
30685.3     66.381  -124.422
31131.7     66.256  -126.041
31584.5     66.144  -127.716
32043.9     66.037  -129.349
32510.0     65.933  -130.822
32982.8     65.835  -131.978
33462.6     65.769  -132.712
33949.3     65.775  -133.101
34443.1     65.877  -133.302
34944.1     66.111  -133.520
35452.4     66.490  -134.119
35968.0     66.985  -135.464
36491.2     67.552  -137.833
37022.0     68.129  -141.456
37560.5     68.630  -146.352
38106.8     68.989  -151.999
38661.1     69.193  -158.106
39223.4     69.250  -163.978
