Freq[Hz]     dBSPL  Phase[Deg]
Freq[Hz]     dBSPL  Phase[Deg]
5.00000     -7.876   -17.472
5.07273     -7.534   -17.568
5.14651     -7.164   -17.669
5.22137     -6.755   -17.777
5.29732     -6.329   -17.888
5.37437     -5.884   -18.003
5.45254     -5.440   -18.119
5.53185     -4.996   -18.238
5.61231     -4.552   -18.358
5.69394     -4.108   -18.479
5.77676     -3.664   -18.603
5.86079     -3.219   -18.728
5.94604     -2.775   -18.855
6.03252     -2.331   -18.984
6.12027     -1.887   -19.115
6.20929     -1.443   -19.248
6.29961     -0.998   -19.383
6.39124     -0.554   -19.520
6.48420     -0.110   -19.658
6.57851      0.334   -19.799
6.67420      0.779   -19.942
6.77128      1.223   -20.087
6.86977      1.667   -20.234
6.96969      2.111   -20.383
7.07107      2.556   -20.534
7.17392      3.000   -20.688
7.27827      3.444   -20.844
7.38413      3.889   -21.002
7.49154      4.333   -21.162
7.60050      4.777   -21.325
7.71105      5.222   -21.490
7.82321      5.666   -21.658
7.93701      6.110   -21.828
8.05245      6.555   -22.000
8.16958      6.999   -22.175
8.28841      7.444   -22.353
8.40896      7.888   -22.533
8.53128      8.332   -22.716
8.65537      8.777   -22.901
8.78126      9.221   -23.089
8.90899      9.666   -23.281
9.03857     10.110   -23.474
9.17004     10.555   -23.671
9.30342     11.000   -23.871
9.43874     11.444   -24.073
9.57603     11.889   -24.279
9.71532     12.333   -24.487
9.85663     12.778   -24.699
10.0000     13.223   -24.913
10.1455     13.667   -25.131
10.2930     14.112   -25.352
10.4427     14.557   -25.577
10.5946     15.001   -25.804
10.7487     15.446   -26.035
10.9051     15.891   -26.270
11.0637     16.336   -26.508
11.2246     16.781   -26.749
11.3879     17.226   -26.994
11.5535     17.670   -27.243
11.7216     18.115   -27.495
11.8921     18.560   -27.751
12.0650     19.005   -28.011
12.2405     19.450   -28.275
12.4186     19.895   -28.543
12.5992     20.341   -28.814
12.7825     20.786   -29.090
12.9684     21.231   -29.370
13.1570     21.676   -29.654
13.3484     22.121   -29.942
13.5426     22.567   -30.234
13.7395     23.012   -30.531
13.9394     23.457   -30.833
14.1421     23.903   -31.139
14.3478     24.348   -31.449
14.5565     24.794   -31.764
14.7683     25.240   -32.084
14.9831     25.685   -32.409
15.2010     26.131   -32.738
15.4221     26.577   -33.073
15.6464     27.023   -33.413
15.8740     27.469   -33.758
16.1049     27.914   -34.108
16.3392     28.361   -34.463
16.5768     28.807   -34.824
16.8179     29.253   -35.190
17.0626     29.699   -35.562
17.3107     30.145   -35.940
17.5625     30.592   -36.323
17.8180     31.038   -36.713
18.0771     31.485   -37.108
18.3401     31.932   -37.509
18.6068     32.379   -37.917
18.8775     32.825   -38.331
19.1521     33.272   -38.752
19.4306     33.720   -39.179
19.7133     34.174   -39.599
20.0000     34.644   -39.995
20.2909     35.148   -40.386
20.5860     35.689   -40.840
20.8855     36.241   -41.549
21.1893     36.777   -42.584
21.4975     37.264   -43.755
21.8102     37.676   -44.820
22.1274     38.031   -45.567
22.4492     38.380   -45.873
22.7758     38.764   -45.810
23.1071     39.201   -45.659
23.4432     39.694   -45.691
23.7841     40.214   -45.991
24.1301     40.723   -46.547
24.4811     41.211   -47.295
24.8372     41.676   -48.171
25.1984     42.131   -49.099
25.5649     42.588   -49.999
25.9368     43.058   -50.867
26.3141     43.545   -51.713
26.6968     44.039   -52.597
27.0851     44.529   -53.575
27.4791     45.008   -54.611
27.8788     45.469   -55.683
28.2843     45.915   -56.770
28.6957     46.358   -57.811
29.1131     46.805   -58.809
29.5365     47.267   -59.803
29.9661     47.743   -60.808
30.4020     48.230   -61.874
30.8442     48.717   -63.018
31.2929     49.193   -64.217
31.7480     49.659   -65.464
32.2098     50.120   -66.729
32.6783     50.578   -67.965
33.1536     51.050   -69.218
33.6359     51.539   -70.550
34.1251     52.040   -71.888
34.6215     52.529   -73.370
35.1250     52.990   -74.934
35.6359     53.429   -76.311
36.1543     53.857   -77.642
36.6802     54.293   -79.008
37.2137     54.754   -80.340
37.7550     55.240   -81.777
38.3041     55.737   -83.360
38.8613     56.225   -85.014
39.4265     56.699   -86.626
40.0000     57.165   -88.196
40.5818     57.629   -89.787
41.1721     58.096   -91.440
41.7710     58.565   -93.151
42.3785     59.034   -94.915
42.9949     59.503   -96.726
43.6203     59.977   -98.541
44.2548     60.449  -100.390
44.8985     60.922  -102.287
45.5515     61.398  -104.208
46.2141     61.869  -106.197
46.8863     62.333  -108.240
47.5683     62.789  -110.295
48.2602     63.241  -112.389
48.9621     63.694  -114.543
49.6743     64.147  -116.745
50.3968     64.600  -119.030
51.1299     65.056  -121.385
51.8736     65.505  -123.778
52.6281     65.946  -126.181
53.3936     66.381  -128.574
54.1702     66.812  -131.015
54.9581     67.236  -133.555
55.7575     67.655  -136.167
56.5685     68.067  -138.876
57.3914     68.469  -141.648
58.2261     68.862  -144.417
59.0730     69.246  -147.204
59.9323     69.622  -150.026
60.8040     69.993  -152.883
61.6884     70.355  -155.795
62.5857     70.708  -158.733
63.4960     71.050  -161.718
64.4196     71.375  -164.758
65.3566     71.684  -167.828
66.3073     71.979  -170.935
67.2717     72.262  -174.040
68.2502     72.537  -177.111
69.2429     72.805   179.824
70.2501     73.066   176.756
71.2719     73.313   173.647
72.3086     73.542   170.490
73.3603     73.752   167.328
74.4274     73.946   164.196
75.5099     74.128   161.120
76.6083     74.301   158.108
77.7226     74.467   155.133
78.8531     74.623   152.181
80.0000     74.763   149.250
81.1636     74.889   146.338
82.3442     75.005   143.476
83.5419     75.112   140.671
84.7570     75.214   137.894
85.9899     75.310   135.156
87.2406     75.398   132.472
88.5096     75.475   129.825
89.7970     75.544   127.222
91.1031     75.605   124.683
92.4282     75.661   122.196
93.7726     75.713   119.753
95.1366     75.759   117.354
96.5204     75.798   114.997
97.9243     75.833   112.686
99.3486     75.861   110.421
100.794     75.882   108.204
102.260     75.900   106.045
103.747     75.912   103.942
105.256     75.921   101.897
106.787     75.931    99.908
108.340     75.941    97.951
109.916     75.950    96.036
111.515     75.958    94.150
113.137     75.963    92.311
114.783     75.965    90.511
116.452     75.965    88.741
118.146     75.965    86.989
119.865     75.960    85.276
121.608     75.952    83.573
123.377     75.939    81.927
125.171     75.921    80.358
126.992     75.907    78.853
128.839     75.897    77.388
130.713     75.894    75.963
132.615     75.896    74.507
134.543     75.896    73.064
136.500     75.895    71.616
138.486     75.887    70.157
140.500     75.872    68.746
142.544     75.856    67.372
144.617     75.837    66.048
146.721     75.821    64.788
148.855     75.811    63.536
151.020     75.805    62.303
153.217     75.800    61.051
155.445     75.793    59.801
157.706     75.785    58.555
160.000     75.772    57.312
162.327     75.756    56.131
164.688     75.741    54.988
167.084     75.726    53.860
169.514     75.714    52.773
171.980     75.706    51.696
174.481     75.703    50.607
177.019     75.698    49.509
179.594     75.694    48.432
182.206     75.692    47.340
184.856     75.688    46.227
187.545     75.680    45.103
190.273     75.666    43.975
193.041     75.645    42.872
195.849     75.619    41.826
198.697     75.592    40.838
201.587     75.571    39.893
204.520     75.552    38.927
207.494     75.525    37.980
210.512     75.497    37.091
213.574     75.469    36.303
216.681     75.454    35.591
219.833     75.460    34.885
223.030     75.482    34.080
226.274     75.505    33.077
229.565     75.507    31.950
232.905     75.484    30.829
236.292     75.445    29.790
239.729     75.396    28.898
243.216     75.356    28.131
246.754     75.326    27.389
250.343     75.297    26.641
253.984     75.263    25.911
257.678     75.232    25.277
261.426     75.209    24.683
265.229     75.202    24.143
269.087     75.216    23.533
273.001     75.233    22.709
276.972     75.217    21.815
281.000     75.185    21.018
285.088     75.144    20.330
289.234     75.109    19.838
293.441     75.105    19.382
297.709     75.124    18.814
302.040     75.141    18.092
306.433     75.143    17.290
310.890     75.121    16.528
315.412     75.091    15.915
320.000     75.076    15.477
324.655     75.091    15.025
329.377     75.122    14.441
334.168     75.156    13.754
339.028     75.184    12.897
343.959     75.183    11.969
348.962     75.163    11.155
354.038     75.150    10.427
359.188     75.129     9.641
364.412     75.103     9.037
369.713     75.110     8.406
375.090     75.106     7.589
380.546     75.084     6.887
386.081     75.080     6.198
391.697     75.068     5.450
397.394     75.047     4.669
403.175     75.004     3.834
409.039     74.939     3.273
414.989     74.893     2.811
421.025     74.872     2.487
427.149     74.875     2.132
433.362     74.898     1.622
439.665     74.905     0.895
446.060     74.876     0.033
452.548     74.812    -0.591
459.131     74.755    -0.960
465.809     74.723    -1.215
472.584     74.731    -1.323
479.458     74.781    -1.636
486.432     74.831    -2.240
493.507     74.848    -2.907
500.686     74.875    -3.455
507.968     74.919    -4.212
515.357     74.926    -5.250
522.853     74.886    -6.096
530.458     74.857    -6.843
538.174     74.803    -7.482
546.002     74.775    -7.887
553.943     74.771    -8.493
562.001     74.740    -9.167
570.175     74.713    -9.658
578.469     74.667   -10.324
586.883     74.599   -10.658
595.419     74.566   -10.742
604.080     74.556   -10.917
612.866     74.582   -11.244
621.780     74.586   -11.701
630.824     74.582   -12.062
640.000     74.598   -12.339
649.309     74.626   -12.550
658.753     74.703   -12.916
668.335     74.765   -13.698
678.056     74.821   -14.531
687.919     74.850   -15.618
697.925     74.812   -16.543
708.077     74.808   -17.019
718.376     74.840   -17.800
728.825     74.803   -18.890
739.426     74.730   -19.708
750.181     74.645   -20.292
761.093     74.539   -20.740
772.163     74.458   -20.495
783.394     74.498   -20.156
794.789     74.572   -20.470
806.349     74.631   -20.998
818.078     74.696   -21.710
829.977     74.722   -22.717
842.050     74.716   -23.448
854.298     74.728   -24.021
866.724     74.747   -24.599
879.330     74.762   -25.226
892.120     74.811   -25.943
905.097     74.851   -26.619
918.262     74.903   -27.378
931.618     74.960   -28.372
945.169     74.988   -29.145
958.917     75.030   -29.925
972.864     75.081   -30.950
987.015     75.090   -31.797
1001.37     75.137   -32.648
1015.94     75.169   -33.674
1030.71     75.202   -34.679
1045.71     75.250   -35.836
1060.92     75.291   -37.135
1076.35     75.282   -38.651
1092.00     75.210   -40.228
1107.89     75.062   -41.388
1124.00     74.931   -42.165
1140.35     74.818   -43.340
1156.94     74.547   -43.727
1173.77     74.425   -42.913
1190.84     74.476   -42.430
1208.16     74.526   -42.479
1225.73     74.589   -42.891
1243.56     74.646   -43.598
1261.65     74.632   -44.268
1280.00     74.671   -44.503
1298.62     74.782   -44.913
1317.51     74.895   -45.728
1336.67     75.021   -46.723
1356.11     75.142   -48.224
1375.84     75.182   -50.036
1395.85     75.199   -51.770
1416.15     75.178   -53.672
1436.75     75.123   -55.397
1457.65     75.064   -57.307
1478.85     74.969   -59.167
1500.36     74.833   -61.047
1522.19     74.678   -62.925
1544.33     74.461   -64.437
1566.79     74.243   -65.798
1589.58     74.028   -66.898
1612.70     73.830   -67.718
1636.16     73.661   -68.961
1659.95     73.496   -70.004
1684.10     73.329   -71.219
1708.60     73.162   -72.848
1733.45     72.948   -74.586
1758.66     72.705   -76.344
1784.24     72.426   -78.377
1810.19     72.114   -80.364
1836.52     71.751   -82.418
1863.24     71.322   -84.643
1890.34     70.821   -86.659
1917.83     70.202   -88.605
1945.73     69.468   -90.179
1974.03     68.603   -89.969
2002.74     67.892   -87.679
2031.87     67.734   -85.526
2061.43     67.765   -86.530
2091.41     67.623   -89.609
2121.83     67.364   -93.267
2152.69     67.086   -96.815
2184.01     66.817  -100.635
2215.77     66.605  -105.328
2248.00     66.413  -111.186
2280.70     66.161  -118.335
2313.87     65.968  -126.176
2347.53     65.827  -134.092
2381.68     65.810  -141.186
2416.32     66.015  -147.284
2451.46     66.364  -152.859
2487.12     66.839  -157.864
2523.30     67.423  -162.912
2560.00     68.015  -168.086
2597.24     68.651  -172.319
2635.01     69.322  -176.239
2673.34     69.926  -179.849
2712.23     70.501   177.501
2751.68     71.064   175.020
2791.70     71.624   172.508
2832.31     72.180   170.156
2873.50     72.714   167.806
2915.30     73.203   165.694
2957.70     73.619   163.768
3000.72     73.943   162.291
3044.37     74.182   161.341
3088.65     74.338   160.919
3133.58     74.459   161.346
3179.16     74.681   162.482
3225.40     74.981   162.949
3272.31     75.213   163.053
3319.91     75.380   163.180
3368.20     75.477   163.422
3417.19     75.511   164.018
3466.89     75.491   165.086
3517.32     75.451   166.591
3568.48     75.401   168.481
3620.39     75.334   170.615
3673.05     75.267   173.041
3726.47     75.203   175.620
3780.67     75.117   178.224
3835.67     75.025  -179.023
3891.46     74.910  -176.286
3948.06     74.739  -173.502
4005.49     74.512  -170.321
4063.75     74.241  -166.616
4122.86     73.941  -162.274
4182.82     73.660  -157.214
4243.66     73.432  -151.775
4305.39     73.238  -146.372
4368.01     73.042  -141.133
4431.55     72.798  -136.122
4496.01     72.423  -131.112
4561.40     71.882  -125.507
4627.75     71.180  -118.660
4695.06     70.359  -109.683
4763.35     69.591   -97.871
4832.64     69.122   -83.282
4902.93     69.238   -67.109
4974.24     69.985   -52.274
5046.60     71.094   -40.653
5120.00     72.245   -32.511
5194.47     73.203   -26.831
5270.03     73.919   -22.359
5346.68     74.398   -18.328
5424.45     74.677   -14.201
5503.35     74.781    -9.720
5583.40     74.723    -4.629
5664.61     74.542     1.326
5747.01     74.299     8.335
5830.60     74.077    16.289
5915.41     73.931    24.803
6001.45     73.862    33.428
6088.74     73.833    41.930
6177.30     73.789    50.407
6267.15     73.706    59.139
6358.31     73.598    68.467
6450.80     73.513    78.466
6544.62     73.480    88.793
6639.82     73.472    99.127
6736.40     73.456   109.472
6834.38     73.436   119.926
6933.79     73.433   130.507
7034.64     73.463   141.123
7136.96     73.511   151.557
7240.77     73.534   161.716
7346.09     73.475   171.741
7452.94     73.295  -178.016
7561.35     72.999  -167.060
7671.33     72.643  -155.110
7782.91     72.305  -142.240
7896.12     72.040  -128.643
8010.97     71.874  -114.542
8127.49     71.803  -100.236
8245.71     71.800   -85.822
8365.65     71.840   -71.213
8487.33     71.932   -56.451
8610.78     72.086   -41.622
8736.03     72.307   -26.957
8863.09     72.561   -12.865
8992.01     72.774     0.526
9122.80     72.881    13.416
9255.50     72.842    26.220
9390.12     72.654    39.619
9526.70     72.380    54.099
9665.27     72.125    69.712
9805.86     71.989    86.115
9948.49     72.010   102.597
10093.2     72.127   118.463
10240.0     72.227   133.541
10388.9     72.208   148.204
10540.1     72.037   163.107
10693.4     71.751   178.802
10848.9     71.407  -164.487
11006.7     71.063  -146.772
11166.8     70.763  -128.221
11329.2     70.525  -109.035
11494.0     70.354   -89.403
11661.2     70.254   -69.533
11830.8     70.210   -49.677
12002.9     70.187   -30.043
12177.5     70.129   -10.584
12354.6     69.991     9.000
12534.3     69.756    29.186
12716.6     69.466    50.459
12901.6     69.213    72.801
13089.2     69.074    95.884
13279.6     69.095   119.211
13472.8     69.247   142.096
13668.8     69.445   164.292
13867.6     69.623  -174.248
14069.3     69.690  -153.472
14273.9     69.594  -132.876
14481.5     69.323  -111.990
14692.2     68.860   -90.288
14905.9     68.240   -67.117
15122.7     67.546   -42.205
15342.7     66.873   -15.503
15565.8     66.332    12.720
15792.2     65.991    41.740
16021.9     65.862    70.845
16255.0     65.871    99.447
16491.4     65.909   127.209
16731.3     65.878   154.342
16974.7     65.697  -178.555
17221.6     65.342  -150.756
17472.1     64.841  -121.610
17726.2     64.262   -90.717
17984.0     63.716   -58.018
18245.6     63.321   -23.945
18511.0     63.166    10.732
18780.2     63.242    45.188
19053.4     63.447    78.763
19330.5     63.650   111.332
19611.7     63.750   143.381
19897.0     63.726   175.694
20186.4     63.615  -151.107
20480.0     63.485  -116.870
20777.9     63.382   -81.845
21080.1     63.308   -46.416
21386.7     63.236   -10.765
21697.8     63.116    25.194
22013.4     62.912    61.797
22333.6     62.637    99.395
22658.4     62.345   138.015
22988.0     62.089   177.564
23322.4     61.888  -142.152
23661.6     61.746  -101.496
24005.8     61.648   -60.623
24355.0     61.533   -19.544
24709.2     61.352    21.729
25068.6     61.082    63.551
25433.2     60.698   106.572
25803.2     60.213   151.273
26178.5     59.735  -162.177
26559.3     59.401  -114.121
26945.6     59.291   -65.451
27337.5     59.372   -17.058
27735.2     59.506    30.675
28138.6     59.540    78.187
28547.9     59.407   126.579
28963.1     59.154   176.753
29384.4     58.911  -131.065
29811.8     58.810   -77.303
30245.4     58.905   -22.896
30685.3     59.161    31.365
31131.7     59.523    85.290
31584.5     59.957   138.978
32043.9     60.434  -167.443
32510.0     60.909  -113.862
32982.8     61.335   -60.263
33462.6     61.692    -6.656
33949.3     61.948    47.044
34443.1     62.079   101.079
34944.1     62.108   155.711
35452.4     62.051  -148.976
35968.0     61.906   -92.815
36491.2     61.719   -35.543
37022.0     61.548    22.645
37560.5     61.387    80.935
38106.8     61.247   132.867
38661.1     61.030   178.429
39223.4     60.806  -149.397
