Freq[Hz]     dBSPL  Phase[Deg]
Freq[Hz]     dBSPL  Phase[Deg]
5.00000     -7.840   -18.111
5.07273     -7.497   -18.205
5.14651     -7.127   -18.304
5.22137     -6.717   -18.409
5.29732     -6.290   -18.516
5.37437     -5.845   -18.627
5.45254     -5.400   -18.740
5.53185     -4.955   -18.854
5.61231     -4.510   -18.970
5.69394     -4.065   -19.088
5.77676     -3.620   -19.208
5.86079     -3.175   -19.329
5.94604     -2.730   -19.452
6.03252     -2.285   -19.576
6.12027     -1.840   -19.703
6.20929     -1.395   -19.831
6.29961     -0.950   -19.962
6.39124     -0.504   -20.094
6.48420     -0.059   -20.228
6.57851      0.386   -20.364
6.67420      0.831   -20.502
6.77128      1.276   -20.642
6.86977      1.721   -20.784
6.96969      2.166   -20.929
7.07107      2.611   -21.075
7.17392      3.057   -21.223
7.27827      3.502   -21.374
7.38413      3.947   -21.527
7.49154      4.392   -21.682
7.60050      4.837   -21.839
7.71105      5.283   -21.999
7.82321      5.728   -22.161
7.93701      6.173   -22.325
8.05245      6.618   -22.492
8.16958      7.064   -22.661
8.28841      7.509   -22.833
8.40896      7.954   -23.007
8.53128      8.400   -23.184
8.65537      8.845   -23.363
8.78126      9.290   -23.545
8.90899      9.736   -23.730
9.03857     10.181   -23.917
9.17004     10.626   -24.107
9.30342     11.072   -24.300
9.43874     11.517   -24.496
9.57603     11.963   -24.695
9.71532     12.408   -24.896
9.85663     12.854   -25.101
10.0000     13.299   -25.308
10.1455     13.745   -25.519
10.2930     14.190   -25.733
10.4427     14.636   -25.950
10.5946     15.081   -26.170
10.7487     15.527   -26.393
10.9051     15.973   -26.620
11.0637     16.418   -26.850
11.2246     16.864   -27.083
11.3879     17.310   -27.320
11.5535     17.756   -27.561
11.7216     18.201   -27.804
11.8921     18.647   -28.052
12.0650     19.093   -28.303
12.2405     19.539   -28.558
12.4186     19.985   -28.817
12.5992     20.431   -29.080
12.7825     20.877   -29.346
12.9684     21.323   -29.617
13.1570     21.769   -29.891
13.3484     22.215   -30.170
13.5426     22.661   -30.453
13.7395     23.108   -30.740
13.9394     23.554   -31.031
14.1421     24.000   -31.327
14.3478     24.447   -31.628
14.5565     24.893   -31.932
14.7683     25.339   -32.242
14.9831     25.786   -32.556
15.2010     26.233   -32.874
15.4221     26.679   -33.198
15.6464     27.126   -33.527
15.8740     27.573   -33.860
16.1049     28.020   -34.199
16.3392     28.466   -34.542
16.5768     28.913   -34.891
16.8179     29.361   -35.246
17.0626     29.808   -35.605
17.3107     30.255   -35.971
17.5625     30.702   -36.342
17.8180     31.150   -36.718
18.0771     31.597   -37.101
18.3401     32.045   -37.489
18.6068     32.492   -37.884
18.8775     32.940   -38.284
19.1521     33.388   -38.691
19.4306     33.836   -39.105
19.7133     34.291   -39.511
20.0000     34.761   -39.895
20.2909     35.263   -40.278
20.5860     35.800   -40.726
20.8855     36.346   -41.423
21.1893     36.875   -42.435
21.4975     37.356   -43.572
21.8102     37.766   -44.593
22.1274     38.124   -45.295
22.4492     38.480   -45.570
22.7758     38.870   -45.498
23.1071     39.312   -45.352
23.4432     39.806   -45.399
23.7841     40.325   -45.710
24.1301     40.833   -46.264
24.4811     41.320   -46.999
24.8372     41.786   -47.854
25.1984     42.241   -48.762
25.5649     42.700   -49.648
25.9368     43.170   -50.511
26.3141     43.657   -51.358
26.6968     44.149   -52.244
27.0851     44.638   -53.218
27.4791     45.116   -54.247
27.8788     45.577   -55.305
28.2843     46.024   -56.373
28.6957     46.468   -57.397
29.1131     46.916   -58.379
29.5365     47.378   -59.360
29.9661     47.855   -60.356
30.4020     48.342   -61.413
30.8442     48.829   -62.548
31.2929     49.306   -63.738
31.7480     49.774   -64.975
32.2098     50.236   -66.230
32.6783     50.695   -67.456
33.1536     51.168   -68.706
33.6359     51.656   -70.043
34.1251     52.155   -71.395
34.6215     52.639   -72.881
35.1250     53.095   -74.428
35.6359     53.531   -75.771
36.1543     53.959   -77.042
36.6802     54.398   -78.340
37.2137     54.865   -79.624
37.7550     55.357   -81.039
38.3041     55.859   -82.620
38.8613     56.349   -84.286
39.4265     56.825   -85.913
40.0000     57.291   -87.490
40.5818     57.755   -89.078
41.1721     58.221   -90.721
41.7710     58.691   -92.420
42.3785     59.160   -94.171
42.9949     59.630   -95.970
43.6203     60.104   -97.775
44.2548     60.577   -99.614
44.8985     61.050  -101.500
45.5515     61.525  -103.411
46.2141     61.996  -105.388
46.8863     62.460  -107.418
47.5683     62.916  -109.457
48.2602     63.368  -111.535
48.9621     63.822  -113.672
49.6743     64.276  -115.859
50.3968     64.730  -118.130
51.1299     65.185  -120.471
51.8736     65.634  -122.850
52.6281     66.075  -125.238
53.3936     66.510  -127.614
54.1702     66.941  -130.037
54.9581     67.366  -132.555
55.7575     67.785  -135.145
56.5685     68.197  -137.831
57.3914     68.600  -140.578
58.2261     68.994  -143.326
59.0730     69.380  -146.092
59.9323     69.758  -148.896
60.8040     70.130  -151.736
61.6884     70.494  -154.633
62.5857     70.849  -157.558
63.4960     71.191  -160.532
64.4196     71.516  -163.558
65.3566     71.826  -166.606
66.3073     72.120  -169.686
67.2717     72.405  -172.762
68.2502     72.682  -175.805
69.2429     72.954  -178.851
70.2501     73.217   178.087
71.2719     73.465   174.979
72.3086     73.694   171.828
73.3603     73.903   168.679
74.4274     74.096   165.566
75.5099     74.278   162.515
76.6083     74.451   159.527
77.7226     74.618   156.574
78.8531     74.775   153.643
80.0000     74.916   150.737
81.1636     75.044   147.852
82.3442     75.162   145.010
83.5419     75.271   142.219
84.7570     75.372   139.453
85.9899     75.467   136.728
87.2406     75.554   134.063
88.5096     75.629   131.446
89.7970     75.697   128.881
91.1031     75.759   126.381
92.4282     75.816   123.934
93.7726     75.869   121.530
95.1366     75.917   119.166
96.5204     75.959   116.842
97.9243     75.996   114.562
99.3486     76.026   112.328
100.794     76.048   110.143
102.260     76.068   108.014
103.747     76.083   105.947
105.256     76.094   103.940
106.787     76.106   101.986
108.340     76.119   100.059
109.916     76.132    98.172
111.515     76.143    96.309
113.137     76.151    94.489
114.783     76.155    92.709
116.452     76.157    90.956
118.146     76.156    89.221
119.865     76.151    87.531
121.608     76.141    85.860
123.377     76.127    84.254
125.171     76.108    82.738
126.992     76.093    81.291
128.839     76.085    79.883
130.713     76.083    78.520
132.615     76.085    77.133
134.543     76.089    75.768
136.500     76.094    74.400
138.486     76.095    73.013
140.500     76.090    71.658
142.544     76.084    70.319
144.617     76.074    69.010
146.721     76.065    67.752
148.855     76.058    66.504
151.020     76.052    65.287
153.217     76.046    64.072
155.445     76.039    62.876
157.706     76.032    61.698
160.000     76.022    60.528
162.327     76.010    59.421
164.688     76.001    58.353
167.084     75.994    57.304
169.514     75.991    56.300
171.980     75.995    55.296
174.481     76.006    54.254
177.019     76.016    53.175
179.594     76.022    52.083
182.206     76.024    50.973
184.856     76.018    49.869
187.545     76.007    48.791
190.273     75.991    47.749
193.041     75.973    46.757
195.849     75.956    45.816
198.697     75.938    44.927
201.587     75.929    44.066
204.520     75.920    43.182
207.494     75.905    42.331
210.512     75.891    41.545
213.574     75.883    40.856
216.681     75.894    40.219
219.833     75.929    39.532
223.030     75.976    38.673
226.274     76.012    37.587
229.565     76.017    36.402
232.905     75.987    35.277
236.292     75.941    34.316
239.729     75.894    33.572
243.216     75.866    32.964
246.754     75.856    32.369
250.343     75.854    31.732
253.984     75.850    31.086
257.678     75.854    30.486
261.426     75.867    29.864
265.229     75.888    29.214
269.087     75.915    28.487
273.001     75.935    27.593
276.972     75.919    26.717
281.000     75.894    26.010
285.088     75.874    25.429
289.234     75.874    24.975
293.441     75.903    24.454
297.709     75.942    23.770
302.040     75.970    22.953
306.433     75.979    22.081
310.890     75.963    21.296
315.412     75.944    20.685
320.000     75.943    20.227
324.655     75.969    19.725
329.377     76.004    19.113
334.168     76.045    18.421
339.028     76.077    17.585
343.959     76.080    16.757
348.962     76.080    16.064
354.038     76.094    15.394
359.188     76.096    14.661
364.412     76.104    14.077
369.713     76.139    13.391
375.090     76.153    12.546
380.546     76.157    11.834
386.081     76.175    11.096
391.697     76.185    10.332
397.394     76.188     9.535
403.175     76.166     8.735
409.039     76.144     8.230
414.989     76.150     7.718
421.025     76.178     7.226
427.149     76.225     6.629
433.362     76.276     5.815
439.665     76.292     4.821
446.060     76.267     3.804
452.548     76.222     3.064
459.131     76.179     2.522
465.809     76.160     2.143
472.584     76.196     1.862
479.458     76.257     1.233
486.432     76.298     0.380
493.507     76.303    -0.456
500.686     76.312    -1.177
507.968     76.331    -1.936
515.357     76.329    -2.840
522.853     76.306    -3.504
530.458     76.308    -4.142
538.174     76.300    -4.768
546.002     76.319    -5.324
553.943     76.337    -6.085
562.001     76.337    -6.880
570.175     76.353    -7.595
578.469     76.335    -8.511
586.883     76.297    -9.154
595.419     76.300    -9.570
604.080     76.302   -10.176
612.866     76.303   -10.953
621.780     76.286   -11.525
630.824     76.279   -11.995
640.000     76.289   -12.457
649.309     76.331   -12.761
658.753     76.413   -13.412
668.335     76.449   -14.435
678.056     76.479   -15.488
687.919     76.460   -16.634
697.925     76.388   -17.315
708.077     76.396   -17.548
718.376     76.451   -18.052
728.825     76.466   -18.730
739.426     76.508   -19.367
750.181     76.551   -20.093
761.093     76.567   -20.979
772.163     76.595   -21.522
783.394     76.675   -22.264
794.789     76.711   -23.468
806.349     76.709   -24.557
818.078     76.708   -25.675
829.977     76.651   -26.774
842.050     76.614   -27.343
854.298     76.632   -27.869
866.724     76.663   -28.407
879.330     76.733   -29.016
892.120     76.822   -30.023
905.097     76.898   -31.250
918.262     76.937   -32.695
931.618     76.906   -34.168
945.169     76.885   -35.209
958.917     76.860   -36.105
972.864     76.869   -36.944
987.015     76.914   -37.903
1001.37     76.940   -39.115
1015.94     76.948   -40.370
1030.71     76.938   -41.682
1045.71     76.892   -42.801
1060.92     76.872   -43.633
1076.35     76.866   -44.436
1092.00     76.860   -45.375
1107.89     76.859   -46.077
1124.00     76.932   -46.726
1140.35     77.044   -48.452
1156.94     76.959   -49.785
1173.77     76.960   -50.180
1190.84     77.040   -51.107
1208.16     77.062   -52.144
1225.73     77.102   -53.369
1243.56     77.112   -54.758
1261.65     77.067   -55.773
1280.00     77.114   -56.505
1298.62     77.206   -57.507
1317.51     77.305   -58.690
1336.67     77.427   -60.179
1356.11     77.480   -62.072
1375.84     77.481   -63.779
1395.85     77.466   -65.435
1416.15     77.402   -67.010
1436.75     77.370   -68.246
1457.65     77.322   -69.724
1478.85     77.288   -70.811
1500.36     77.269   -71.929
1522.19     77.241   -73.132
1544.33     77.262   -73.918
1566.79     77.287   -75.101
1589.58     77.317   -76.282
1612.70     77.361   -77.329
1636.16     77.371   -78.740
1659.95     77.433   -80.065
1684.10     77.463   -81.539
1708.60     77.482   -83.270
1733.45     77.492   -85.004
1758.66     77.448   -86.546
1784.24     77.360   -87.955
1810.19     77.264   -88.949
1836.52     77.156   -89.405
1863.24     77.091   -89.493
1890.34     77.105   -89.496
1917.83     77.220   -89.760
1945.73     77.379   -90.425
1974.03     77.527   -91.297
2002.74     77.660   -92.280
2031.87     77.857   -93.508
2061.43     78.012   -95.617
2091.41     78.087   -98.286
2121.83     78.054  -100.869
2152.69     77.975  -102.836
2184.01     77.897  -104.175
2215.77     77.814  -105.098
2248.00     77.753  -105.847
2280.70     77.748  -106.513
2313.87     77.802  -107.493
2347.53     77.891  -108.904
2381.68     77.949  -110.477
2416.32     77.966  -112.182
2451.46     77.918  -113.682
2487.12     77.822  -114.681
2523.30     77.731  -115.287
2560.00     77.675  -115.619
2597.24     77.675  -115.890
2635.01     77.697  -116.287
2673.34     77.739  -117.074
2712.23     77.764  -118.249
2751.68     77.725  -119.513
2791.70     77.632  -120.745
2832.31     77.501  -121.688
2873.50     77.363  -122.117
2915.30     77.269  -122.275
2957.70     77.223  -122.254
3000.72     77.240  -122.325
3044.37     77.284  -122.850
3088.65     77.293  -123.969
3133.58     77.180  -125.457
3179.16     76.954  -126.200
3225.40     76.792  -126.386
3272.31     76.619  -126.504
3319.91     76.446  -126.099
3368.20     76.342  -125.289
3417.19     76.339  -124.653
3466.89     76.388  -124.640
3517.32     76.409  -125.311
3568.48     76.336  -126.364
3620.39     76.150  -127.292
3673.05     75.891  -127.692
3726.47     75.632  -127.535
3780.67     75.423  -127.140
3835.67     75.248  -126.919
3891.46     75.065  -127.020
3948.06     74.821  -127.349
4005.49     74.496  -127.590
4063.75     74.123  -127.553
4122.86     73.718  -127.298
4182.82     73.275  -126.946
4243.66     72.775  -126.580
4305.39     72.169  -126.095
4368.01     71.437  -125.209
4431.55     70.596  -123.684
4496.01     69.640  -121.405
4561.40     68.519  -118.291
4627.75     67.129  -113.779
4695.06     65.338  -106.126
4763.35     63.261   -91.203
4832.64     62.159   -64.401
4902.93     63.814   -36.709
4974.24     66.756   -22.167
5046.60     69.401   -17.369
5120.00     71.452   -17.203
5194.47     72.984   -19.048
5270.03     74.104   -21.643
5346.68     74.914   -24.341
5424.45     75.491   -26.847
5503.35     75.878   -29.013
5583.40     76.104   -30.805
5664.61     76.187   -32.143
5747.01     76.169   -33.003
5830.60     76.079   -33.472
5915.41     75.928   -33.506
6001.45     75.738   -33.051
6088.74     75.512   -32.237
6177.30     75.216   -31.050
6267.15     74.832   -29.147
6358.31     74.392   -26.217
6450.80     73.962   -22.270
6544.62     73.598   -17.485
6639.82     73.331   -12.021
6736.40     73.180    -6.089
6834.38     73.156    -0.036
6933.79     73.232     5.953
7034.64     73.391    11.895
7136.96     73.634    17.622
7240.77     73.922    22.940
7346.09     74.234    27.887
7452.94     74.564    32.357
7561.35     74.873    36.302
7671.33     75.143    39.963
7782.91     75.378    43.392
7896.12     75.546    46.675
8010.97     75.649    50.098
8127.49     75.720    53.699
8245.71     75.768    57.450
8365.65     75.814    61.366
8487.33     75.871    65.344
8610.78     75.925    69.325
8736.03     75.963    73.291
8863.09     75.969    77.237
8992.01     75.919    81.289
9122.80     75.818    85.656
9255.50     75.696    90.450
9390.12     75.577    95.660
9526.70     75.476   101.263
9665.27     75.401   107.256
9805.86     75.365   113.632
9948.49     75.394   120.246
10093.2     75.483   126.785
10240.0     75.598   133.091
10388.9     75.716   139.215
10540.1     75.822   145.251
10693.4     75.915   151.322
10848.9     76.009   157.474
11006.7     76.104   163.644
11166.8     76.196   169.810
11329.2     76.285   175.963
11494.0     76.362  -177.912
11661.2     76.420  -171.756
11830.8     76.459  -165.520
12002.9     76.475  -159.194
12177.5     76.463  -152.738
12354.6     76.424  -146.058
12534.3     76.368  -139.090
12716.6     76.310  -131.801
12901.6     76.275  -124.190
13089.2     76.282  -116.415
13279.6     76.326  -108.649
13472.8     76.389  -100.997
13668.8     76.447   -93.499
13867.6     76.478   -86.060
14069.3     76.480   -78.566
14273.9     76.455   -70.936
14481.5     76.407   -63.102
14692.2     76.344   -55.042
14905.9     76.265   -46.751
15122.7     76.179   -38.228
15342.7     76.095   -29.453
15565.8     76.026   -20.448
15792.2     75.980   -11.291
16021.9     75.959    -2.047
16255.0     75.950     7.206
16491.4     75.937    16.450
16731.3     75.905    25.782
16974.7     75.845    35.329
17221.6     75.758    45.233
17472.1     75.651    55.589
17726.2     75.542    66.373
17984.0     75.451    77.477
18245.6     75.382    88.741
18511.0     75.338   100.019
18780.2     75.314   111.241
19053.4     75.302   122.386
19330.5     75.300   133.442
19611.7     75.300   144.400
19897.0     75.292   155.280
20186.4     75.256   166.165
20480.0     75.170   177.198
20777.9     75.028  -171.395
21080.1     74.842  -159.366
21386.7     74.639  -146.622
21697.8     74.458  -133.239
22013.4     74.324  -119.423
22333.6     74.239  -105.465
22658.4     74.177   -91.578
22988.0     74.094   -77.814
23322.4     73.966   -64.037
23661.6     73.787   -49.980
24005.8     73.571   -35.442
24355.0     73.348   -20.338
24709.2     73.142    -4.657
25068.6     72.955    11.484
25433.2     72.776    27.905
25803.2     72.583    44.550
26178.5     72.366    61.509
26559.3     72.137    78.935
26945.6     71.925    96.967
27337.5     71.760   115.649
27735.2     71.665   134.923
28138.6     71.644   154.633
28547.9     71.679   174.576
28963.1     71.748  -165.333
29384.4     71.842  -145.055
29811.8     71.977  -124.557
30245.4     72.183  -103.883
30685.3     72.487   -83.171
31131.7     72.890   -62.645
31584.5     73.359   -42.521
32043.9     73.839   -22.853
32510.0     74.290    -3.499
32982.8     74.698    15.731
33462.6     75.062    34.983
33949.3     75.385    54.332
34443.1     75.669    73.780
34944.1     75.910    93.320
35452.4     76.103   113.034
35968.0     76.257   133.019
36491.2     76.387   153.293
37022.0     76.501   173.784
37560.5     76.586  -165.609
38106.8     76.619  -147.377
38661.1     76.594  -131.199
39223.4     76.513  -120.232
