Freq[Hz]     dBSPL  Phase[Deg]
Freq[Hz]     dBSPL  Phase[Deg]
5.00000     -8.058   -17.821
5.07273     -7.715   -17.918
5.14651     -7.344   -18.018
5.22137     -6.933   -18.125
5.29732     -6.505   -18.236
5.37437     -6.060   -18.350
5.45254     -5.614   -18.466
5.53185     -5.168   -18.584
5.61231     -4.722   -18.704
5.69394     -4.276   -18.825
5.77676     -3.830   -18.948
5.86079     -3.384   -19.073
5.94604     -2.939   -19.199
6.03252     -2.493   -19.328
6.12027     -2.047   -19.458
6.20929     -1.601   -19.590
6.29961     -1.155   -19.725
6.39124     -0.709   -19.861
6.48420     -0.263   -19.999
6.57851      0.183   -20.139
6.67420      0.629   -20.281
6.77128      1.075   -20.425
6.86977      1.521   -20.572
6.96969      1.967   -20.720
7.07107      2.413   -20.871
7.17392      2.859   -21.024
7.27827      3.305   -21.179
7.38413      3.751   -21.336
7.49154      4.197   -21.496
7.60050      4.643   -21.658
7.71105      5.089   -21.823
7.82321      5.535   -21.989
7.93701      5.981   -22.159
8.05245      6.427   -22.330
8.16958      6.873   -22.505
8.28841      7.319   -22.681
8.40896      7.765   -22.861
8.53128      8.212   -23.043
8.65537      8.658   -23.228
8.78126      9.104   -23.415
8.90899      9.550   -23.605
9.03857      9.996   -23.798
9.17004     10.443   -23.994
9.30342     10.889   -24.193
9.43874     11.335   -24.394
9.57603     11.781   -24.599
9.71532     12.228   -24.806
9.85663     12.674   -25.017
10.0000     13.120   -25.231
10.1455     13.567   -25.448
10.2930     14.013   -25.668
10.4427     14.459   -25.891
10.5946     14.906   -26.118
10.7487     15.352   -26.348
10.9051     15.799   -26.581
11.0637     16.245   -26.818
11.2246     16.692   -27.058
11.3879     17.138   -27.302
11.5535     17.585   -27.550
11.7216     18.032   -27.801
11.8921     18.478   -28.056
12.0650     18.925   -28.315
12.2405     19.372   -28.577
12.4186     19.819   -28.844
12.5992     20.265   -29.114
12.7825     20.712   -29.389
12.9684     21.159   -29.667
13.1570     21.606   -29.950
13.3484     22.053   -30.237
13.5426     22.500   -30.528
13.7395     22.947   -30.824
13.9394     23.394   -31.124
14.1421     23.841   -31.428
14.3478     24.288   -31.737
14.5565     24.736   -32.051
14.7683     25.183   -32.370
14.9831     25.630   -32.693
15.2010     26.078   -33.021
15.4221     26.525   -33.354
15.6464     26.973   -33.692
15.8740     27.420   -34.036
16.1049     27.868   -34.384
16.3392     28.316   -34.738
16.5768     28.764   -35.097
16.8179     29.211   -35.462
17.0626     29.659   -35.832
17.3107     30.107   -36.208
17.5625     30.556   -36.590
17.8180     31.004   -36.978
18.0771     31.452   -37.371
18.3401     31.901   -37.771
18.6068     32.349   -38.177
18.8775     32.798   -38.589
19.1521     33.246   -39.008
19.4306     33.695   -39.433
19.7133     34.151   -39.851
20.0000     34.623   -40.244
20.2909     35.126   -40.630
20.5860     35.666   -41.073
20.8855     36.215   -41.761
21.1893     36.746   -42.764
21.4975     37.231   -43.898
21.8102     37.645   -44.928
22.1274     38.007   -45.652
22.4492     38.366   -45.954
22.7758     38.757   -45.910
23.1071     39.198   -45.790
23.4432     39.689   -45.854
23.7841     40.205   -46.175
24.1301     40.712   -46.733
24.4811     41.199   -47.472
24.8372     41.666   -48.333
25.1984     42.122   -49.248
25.5649     42.580   -50.147
25.9368     43.050   -51.024
26.3141     43.538   -51.884
26.6968     44.030   -52.779
27.0851     44.519   -53.761
27.4791     44.997   -54.795
27.8788     45.458   -55.859
28.2843     45.905   -56.934
28.6957     46.350   -57.966
29.1131     46.799   -58.958
29.5365     47.263   -59.952
29.9661     47.741   -60.962
30.4020     48.229   -62.040
30.8442     48.718   -63.198
31.2929     49.195   -64.409
31.7480     49.662   -65.667
32.2098     50.123   -66.941
32.6783     50.583   -68.182
33.1536     51.057   -69.447
33.6359     51.545   -70.806
34.1251     52.045   -72.184
34.6215     52.528   -73.703
35.1250     52.981   -75.284
35.6359     53.413   -76.652
36.1543     53.837   -77.940
36.6802     54.273   -79.249
37.2137     54.737   -80.539
37.7550     55.229   -81.959
38.3041     55.731   -83.550
38.8613     56.220   -85.228
39.4265     56.695   -86.869
40.0000     57.159   -88.458
40.5818     57.621   -90.058
41.1721     58.085   -91.711
41.7710     58.552   -93.414
42.3785     59.018   -95.160
42.9949     59.488   -96.948
43.6203     59.963   -98.742
44.2548     60.440  -100.579
44.8985     60.917  -102.476
45.5515     61.395  -104.411
46.2141     61.867  -106.419
46.8863     62.331  -108.479
47.5683     62.787  -110.546
48.2602     63.238  -112.650
48.9621     63.691  -114.808
49.6743     64.143  -117.016
50.3968     64.596  -119.307
51.1299     65.050  -121.666
51.8736     65.498  -124.062
52.6281     65.937  -126.468
53.3936     66.371  -128.858
54.1702     66.800  -131.290
54.9581     67.225  -133.815
55.7575     67.645  -136.414
56.5685     68.058  -139.112
57.3914     68.462  -141.879
58.2261     68.857  -144.652
59.0730     69.243  -147.444
59.9323     69.621  -150.273
60.8040     69.993  -153.136
61.6884     70.357  -156.057
62.5857     70.712  -159.006
63.4960     71.054  -162.007
64.4196     71.379  -165.068
65.3566     71.688  -168.154
66.3073     71.980  -171.271
67.2717     72.262  -174.382
68.2502     72.535  -177.451
69.2429     72.803   179.490
70.2501     73.063   176.423
71.2719     73.312   173.313
72.3086     73.542   170.153
73.3603     73.753   166.988
74.4274     73.947   163.849
75.5099     74.129   160.767
76.6083     74.303   157.747
77.7226     74.469   154.761
78.8531     74.624   151.800
80.0000     74.764   148.864
81.1636     74.889   145.956
82.3442     75.005   143.102
83.5419     75.114   140.303
84.7570     75.217   137.525
85.9899     75.316   134.779
87.2406     75.407   132.077
88.5096     75.485   129.409
89.7970     75.554   126.787
91.1031     75.615   124.232
92.4282     75.670   121.731
93.7726     75.722   119.276
95.1366     75.767   116.866
96.5204     75.807   114.498
97.9243     75.841   112.178
99.3486     75.869   109.904
100.794     75.891   107.678
102.260     75.910   105.507
103.747     75.924   103.391
105.256     75.934   101.327
106.787     75.944    99.311
108.340     75.954    97.323
109.916     75.962    95.373
111.515     75.967    93.448
113.137     75.967    91.575
114.783     75.962    89.754
116.452     75.954    87.984
118.146     75.947    86.255
119.865     75.938    84.578
121.608     75.928    82.913
123.377     75.917    81.298
125.171     75.901    79.745
126.992     75.888    78.246
128.839     75.878    76.791
130.713     75.874    75.390
132.615     75.877    73.974
134.543     75.883    72.578
136.500     75.893    71.161
138.486     75.899    69.697
140.500     75.896    68.241
142.544     75.888    66.789
144.617     75.872    65.372
146.721     75.855    64.030
148.855     75.840    62.715
151.020     75.830    61.437
153.217     75.821    60.150
155.445     75.810    58.859
157.706     75.797    57.570
160.000     75.775    56.290
162.327     75.748    55.089
164.688     75.722    53.953
167.084     75.699    52.860
169.514     75.680    51.820
171.980     75.669    50.800
174.481     75.665    49.768
177.019     75.663    48.718
179.594     75.663    47.671
182.206     75.664    46.604
184.856     75.664    45.518
187.545     75.662    44.414
190.273     75.653    43.300
193.041     75.638    42.206
195.849     75.618    41.148
198.697     75.594    40.151
201.587     75.575    39.198
204.520     75.557    38.231
207.494     75.532    37.302
210.512     75.509    36.436
213.574     75.487    35.656
216.681     75.477    34.946
219.833     75.488    34.255
223.030     75.516    33.471
226.274     75.550    32.491
229.565     75.566    31.374
232.905     75.556    30.249
236.292     75.534    29.182
239.729     75.500    28.211
243.216     75.466    27.345
246.754     75.438    26.540
250.343     75.413    25.731
253.984     75.381    24.950
257.678     75.355    24.303
261.426     75.346    23.666
265.229     75.349    22.994
269.087     75.359    22.254
273.001     75.370    21.340
276.972     75.346    20.400
281.000     75.309    19.620
285.088     75.281    18.958
289.234     75.267    18.398
293.441     75.279    17.760
297.709     75.294    16.967
302.040     75.293    16.073
306.433     75.265    15.167
310.890     75.215    14.478
315.412     75.179    13.995
320.000     75.171    13.618
324.655     75.201    13.173
329.377     75.245    12.504
334.168     75.282    11.643
339.028     75.297    10.660
343.959     75.269     9.669
348.962     75.224     8.947
354.038     75.198     8.372
359.188     75.174     7.796
364.412     75.169     7.401
369.713     75.214     6.882
375.090     75.254     6.029
380.546     75.265     5.156
386.081     75.274     4.246
391.697     75.265     3.324
397.394     75.233     2.371
403.175     75.169     1.498
409.039     75.100     1.018
414.989     75.060     0.603
421.025     75.046     0.373
427.149     75.080     0.146
433.362     75.145    -0.373
439.665     75.194    -1.187
446.060     75.216    -2.254
452.548     75.181    -3.327
459.131     75.110    -4.087
465.809     75.056    -4.552
472.584     75.040    -4.754
479.458     75.081    -5.028
486.432     75.157    -5.574
493.507     75.210    -6.405
500.686     75.249    -7.293
507.968     75.277    -8.344
515.357     75.256    -9.574
522.853     75.182   -10.483
530.458     75.131   -11.152
538.174     75.075   -11.658
546.002     75.060   -11.961
553.943     75.080   -12.527
562.001     75.067   -13.161
570.175     75.090   -13.599
578.469     75.100   -14.439
586.883     75.066   -15.012
595.419     75.087   -15.265
604.080     75.128   -15.827
612.866     75.182   -16.605
621.780     75.225   -17.485
630.824     75.236   -18.511
640.000     75.231   -19.427
649.309     75.233   -20.157
658.753     75.258   -21.057
668.335     75.241   -22.126
678.056     75.240   -23.021
687.919     75.210   -24.090
697.925     75.123   -24.741
708.077     75.118   -24.870
718.376     75.181   -25.247
728.825     75.225   -26.029
739.426     75.287   -26.922
750.181     75.324   -27.900
761.093     75.326   -29.141
772.163     75.297   -29.927
783.394     75.319   -30.540
794.789     75.328   -31.588
806.349     75.327   -32.395
818.078     75.378   -33.308
829.977     75.399   -34.571
842.050     75.416   -35.574
854.298     75.464   -36.644
866.724     75.471   -37.894
879.330     75.468   -39.181
892.120     75.470   -40.375
905.097     75.464   -41.597
918.262     75.465   -42.946
931.618     75.440   -44.285
945.169     75.424   -45.503
958.917     75.394   -46.750
972.864     75.384   -47.973
987.015     75.387   -49.347
1001.37     75.377   -50.857
1015.94     75.364   -52.486
1030.71     75.327   -54.166
1045.71     75.225   -55.632
1060.92     75.147   -56.730
1076.35     75.083   -58.117
1092.00     74.981   -59.529
1107.89     74.861   -60.783
1124.00     74.789   -61.967
1140.35     74.731   -63.658
1156.94     74.458   -64.641
1173.77     74.331   -64.284
1190.84     74.400   -64.266
1208.16     74.438   -65.005
1225.73     74.524   -66.082
1243.56     74.562   -67.866
1261.65     74.486   -69.321
1280.00     74.492   -70.473
1298.62     74.474   -71.692
1317.51     74.499   -72.724
1336.67     74.597   -74.210
1356.11     74.593   -76.142
1375.84     74.566   -77.809
1395.85     74.527   -79.607
1416.15     74.420   -81.167
1436.75     74.359   -82.435
1457.65     74.306   -83.808
1478.85     74.259   -85.056
1500.36     74.227   -86.347
1522.19     74.207   -87.526
1544.33     74.226   -88.475
1566.79     74.331   -89.898
1589.58     74.450   -91.496
1612.70     74.560   -93.447
1636.16     74.634   -95.954
1659.95     74.697   -98.308
1684.10     74.709  -100.822
1708.60     74.737  -103.644
1733.45     74.735  -106.306
1758.66     74.694  -109.074
1784.24     74.617  -111.983
1810.19     74.481  -114.548
1836.52     74.307  -116.852
1863.24     74.136  -119.137
1890.34     73.944  -121.162
1917.83     73.849  -123.135
1945.73     73.795  -125.355
1974.03     73.713  -127.693
2002.74     73.635  -129.714
2031.87     73.627  -131.410
2061.43     73.661  -133.917
2091.41     73.637  -136.999
2121.83     73.526  -140.040
2152.69     73.369  -142.633
2184.01     73.210  -144.704
2215.77     73.058  -146.570
2248.00     72.946  -148.208
2280.70     72.922  -149.742
2313.87     72.983  -151.755
2347.53     73.093  -154.176
2381.68     73.195  -156.966
2416.32     73.230  -159.931
2451.46     73.235  -162.709
2487.12     73.190  -165.117
2523.30     73.171  -167.149
2560.00     73.208  -169.350
2597.24     73.241  -171.669
2635.01     73.281  -174.148
2673.34     73.336  -177.024
2712.23     73.361  -179.980
2751.68     73.373   177.052
2791.70     73.377   173.968
2832.31     73.374   171.046
2873.50     73.370   168.333
2915.30     73.406   165.812
2957.70     73.492   163.344
3000.72     73.605   160.790
3044.37     73.725   158.051
3088.65     73.828   154.972
3133.58     73.866   151.968
3179.16     73.970   149.401
3225.40     74.122   146.013
3272.31     74.170   142.625
3319.91     74.199   139.737
3368.20     74.258   137.078
3417.19     74.334   134.557
3466.89     74.456   131.867
3517.32     74.590   128.845
3568.48     74.699   125.595
3620.39     74.779   122.138
3673.05     74.805   118.729
3726.47     74.798   115.573
3780.67     74.781   112.747
3835.67     74.794   110.220
3891.46     74.869   107.728
3948.06     74.987   105.022
4005.49     75.116   101.922
4063.75     75.214    98.486
4122.86     75.253    94.940
4182.82     75.240    91.442
4243.66     75.182    88.170
4305.39     75.096    85.198
4368.01     75.008    82.493
4431.55     74.923    80.027
4496.01     74.861    77.783
4561.40     74.838    75.642
4627.75     74.838    73.376
4695.06     74.840    70.961
4763.35     74.826    68.437
4832.64     74.777    65.837
4902.93     74.687    63.256
4974.24     74.553    60.892
5046.60     74.388    58.941
5120.00     74.228    57.479
5194.47     74.107    56.378
5270.03     74.047    55.452
5346.68     74.060    54.561
5424.45     74.150    53.485
5503.35     74.286    51.937
5583.40     74.411    49.827
5664.61     74.471    47.364
5747.01     74.459    44.903
5830.60     74.402    42.709
5915.41     74.330    40.774
6001.45     74.260    38.945
6088.74     74.187    37.081
6177.30     74.080    35.202
6267.15     73.918    33.603
6358.31     73.735    32.560
6450.80     73.593    32.006
6544.62     73.520    31.611
6639.82     73.497    31.103
6736.40     73.510    30.492
6834.38     73.563    29.785
6933.79     73.639    28.930
7034.64     73.730    28.016
7136.96     73.852    26.915
7240.77     73.970    25.370
7346.09     74.042    23.590
7452.94     74.095    21.766
7561.35     74.133    19.731
7671.33     74.127    17.638
7782.91     74.102    15.764
7896.12     74.090    13.901
8010.97     74.059    11.912
8127.49     74.001    10.004
8245.71     73.950     8.118
8365.65     73.878     6.049
8487.33     73.740     4.034
8610.78     73.578     2.335
8736.03     73.428     0.760
8863.09     73.267    -0.836
8992.01     73.095    -2.398
9122.80     72.922    -4.027
9255.50     72.715    -5.736
9390.12     72.456    -7.266
9526.70     72.155    -8.456
9665.27     71.819    -9.042
9805.86     71.524    -8.757
9948.49     71.349    -7.968
10093.2     71.305    -7.142
10240.0     71.391    -6.652
10388.9     71.556    -6.953
10540.1     71.720    -8.031
10693.4     71.853    -9.748
10848.9     71.916   -11.980
11006.7     71.889   -14.368
11166.8     71.779   -16.670
11329.2     71.599   -18.652
11494.0     71.393   -20.260
11661.2     71.172   -21.629
11830.8     70.949   -22.689
12002.9     70.747   -23.565
12177.5     70.545   -24.312
12354.6     70.352   -24.745
12534.3     70.190   -25.011
12716.6     70.051   -25.231
12901.6     69.955   -25.487
13089.2     69.889   -26.067
13279.6     69.815   -26.939
13472.8     69.732   -27.985
13668.8     69.620   -29.146
13867.6     69.489   -30.223
14069.3     69.363   -31.231
14273.9     69.239   -32.243
14481.5     69.118   -33.317
14692.2     68.981   -34.511
14905.9     68.823   -35.741
15122.7     68.655   -36.998
15342.7     68.486   -38.297
15565.8     68.332   -39.664
15792.2     68.183   -41.155
16021.9     68.024   -42.642
16255.0     67.845   -44.047
16491.4     67.654   -45.355
16731.3     67.453   -46.540
16974.7     67.231   -47.752
17221.6     66.991   -49.038
17472.1     66.705   -50.299
17726.2     66.341   -51.404
17984.0     65.894   -52.154
18245.6     65.377   -52.389
18511.0     64.830   -51.965
18780.2     64.294   -50.856
19053.4     63.834   -49.270
19330.5     63.500   -47.401
19611.7     63.291   -45.493
19897.0     63.181   -43.914
20186.4     63.124   -42.740
20480.0     63.061   -41.781
20777.9     62.990   -40.770
21080.1     62.933   -39.483
21386.7     62.911   -38.008
21697.8     62.975   -36.394
22013.4     63.129   -34.753
22333.6     63.355   -33.496
22658.4     63.626   -32.689
22988.0     63.893   -32.325
23322.4     64.150   -32.571
23661.6     64.400   -33.403
24005.8     64.621   -34.796
24355.0     64.818   -36.654
24709.2     64.980   -38.732
25068.6     65.084   -40.939
25433.2     65.137   -43.310
25803.2     65.138   -45.936
26178.5     65.052   -48.984
26559.3     64.844   -52.409
26945.6     64.490   -55.795
27337.5     63.987   -58.519
27735.2     63.366   -59.958
28138.6     62.702   -59.760
28547.9     62.091   -57.991
28963.1     61.617   -55.106
29384.4     61.324   -51.813
29811.8     61.202   -48.749
30245.4     61.227   -46.203
30685.3     61.377   -44.234
31131.7     61.630   -42.816
31584.5     61.958   -41.833
32043.9     62.347   -41.228
32510.0     62.787   -41.111
32982.8     63.249   -41.640
33462.6     63.696   -42.856
33949.3     64.116   -44.644
34443.1     64.529   -46.965
34944.1     64.945   -49.948
35452.4     65.343   -53.702
35968.0     65.692   -58.369
36491.2     65.933   -64.051
37022.0     65.990   -70.480
37560.5     65.837   -77.108
38106.8     65.536   -83.329
38661.1     65.142   -89.056
39223.4     64.749   -94.119
