Freq[Hz]     dBSPL  Phase[Deg]
Freq[Hz]     dBSPL  Phase[Deg]
5.00000     -7.906   -17.263
5.07273     -7.564   -17.360
5.14651     -7.194   -17.462
5.22137     -6.785   -17.570
5.29732     -6.359   -17.683
5.37437     -5.915   -17.799
5.45254     -5.471   -17.917
5.53185     -5.027   -18.037
5.61231     -4.583   -18.158
5.69394     -4.139   -18.282
5.77676     -3.695   -18.407
5.86079     -3.252   -18.534
5.94604     -2.808   -18.663
6.03252     -2.364   -18.793
6.12027     -1.920   -18.926
6.20929     -1.476   -19.060
6.29961     -1.032   -19.197
6.39124     -0.588   -19.335
6.48420     -0.144   -19.476
6.57851      0.300   -19.618
6.67420      0.744   -19.763
6.77128      1.189   -19.910
6.86977      1.633   -20.059
6.96969      2.077   -20.210
7.07107      2.521   -20.363
7.17392      2.965   -20.518
7.27827      3.409   -20.676
7.38413      3.853   -20.836
7.49154      4.297   -20.999
7.60050      4.741   -21.164
7.71105      5.185   -21.331
7.82321      5.629   -21.501
7.93701      6.074   -21.673
8.05245      6.518   -21.847
8.16958      6.962   -22.025
8.28841      7.406   -22.205
8.40896      7.850   -22.387
8.53128      8.295   -22.572
8.65537      8.739   -22.760
8.78126      9.183   -22.951
8.90899      9.627   -23.144
9.03857     10.072   -23.341
9.17004     10.516   -23.540
9.30342     10.960   -23.742
9.43874     11.405   -23.947
9.57603     11.849   -24.155
9.71532     12.293   -24.366
9.85663     12.738   -24.581
10.0000     13.182   -24.798
10.1455     13.627   -25.019
10.2930     14.071   -25.243
10.4427     14.516   -25.470
10.5946     14.960   -25.700
10.7487     15.405   -25.934
10.9051     15.849   -26.172
11.0637     16.294   -26.413
11.2246     16.738   -26.657
11.3879     17.183   -26.905
11.5535     17.628   -27.157
11.7216     18.073   -27.413
11.8921     18.517   -27.672
12.0650     18.962   -27.935
12.2405     19.407   -28.202
12.4186     19.852   -28.474
12.5992     20.297   -28.749
12.7825     20.742   -29.028
12.9684     21.186   -29.311
13.1570     21.631   -29.599
13.3484     22.077   -29.891
13.5426     22.522   -30.187
13.7395     22.967   -30.488
13.9394     23.412   -30.793
14.1421     23.857   -31.103
14.3478     24.302   -31.417
14.5565     24.748   -31.736
14.7683     25.193   -32.060
14.9831     25.639   -32.389
15.2010     26.084   -32.723
15.4221     26.530   -33.062
15.6464     26.975   -33.406
15.8740     27.421   -33.755
16.1049     27.867   -34.109
16.3392     28.312   -34.469
16.5768     28.758   -34.835
16.8179     29.204   -35.206
17.0626     29.650   -35.582
17.3107     30.097   -35.965
17.5625     30.543   -36.353
17.8180     30.989   -36.747
18.0771     31.435   -37.147
18.3401     31.882   -37.554
18.6068     32.328   -37.967
18.8775     32.775   -38.386
19.1521     33.222   -38.812
19.4306     33.669   -39.244
19.7133     34.123   -39.670
20.0000     34.594   -40.070
20.2909     35.097   -40.465
20.5860     35.640   -40.923
20.8855     36.194   -41.637
21.1893     36.731   -42.679
21.4975     37.220   -43.861
21.8102     37.633   -44.941
22.1274     37.987   -45.703
22.4492     38.335   -46.019
22.7758     38.716   -45.961
23.1071     39.152   -45.809
23.4432     39.645   -45.837
23.7841     40.165   -46.134
24.1301     40.674   -46.692
24.4811     41.163   -47.447
24.8372     41.628   -48.331
25.1984     42.082   -49.268
25.5649     42.539   -50.172
25.9368     43.009   -51.044
26.3141     43.496   -51.891
26.6968     43.990   -52.775
27.0851     44.480   -53.755
27.4791     44.960   -54.795
27.8788     45.421   -55.873
28.2843     45.867   -56.968
28.6957     46.310   -58.016
29.1131     46.757   -59.022
29.5365     47.218   -60.021
29.9661     47.694   -61.031
30.4020     48.181   -62.101
30.8442     48.668   -63.249
31.2929     49.143   -64.452
31.7480     49.609   -65.704
32.2098     50.070   -66.974
32.6783     50.528   -68.216
33.1536     51.000   -69.472
33.6359     51.489   -70.805
34.1251     51.990   -72.141
34.6215     52.480   -73.623
35.1250     52.943   -75.195
35.6359     53.383   -76.585
36.1543     53.811   -77.935
36.6802     54.245   -79.325
37.2137     54.705   -80.674
37.7550     55.189   -82.120
38.3041     55.685   -83.706
38.8613     56.171   -85.359
39.4265     56.645   -86.970
40.0000     57.110   -88.540
40.5818     57.574   -90.134
41.1721     58.041   -91.790
41.7710     58.511   -93.506
42.3785     58.979   -95.276
42.9949     59.449   -97.094
43.6203     59.922   -98.914
44.2548     60.394  -100.768
44.8985     60.867  -102.671
45.5515     61.343  -104.598
46.2141     61.814  -106.592
46.8863     62.278  -108.642
47.5683     62.734  -110.704
48.2602     63.186  -112.806
48.9621     63.639  -114.967
49.6743     64.091  -117.176
50.3968     64.545  -119.467
51.1299     65.000  -121.829
51.8736     65.449  -124.228
52.6281     65.890  -126.639
53.3936     66.325  -129.040
54.1702     66.756  -131.489
54.9581     67.181  -134.038
55.7575     67.600  -136.660
56.5685     68.011  -139.379
57.3914     68.413  -142.162
58.2261     68.805  -144.941
59.0730     69.188  -147.736
59.9323     69.565  -150.568
60.8040     69.935  -153.432
61.6884     70.297  -156.353
62.5857     70.650  -159.298
63.4960     70.991  -162.291
64.4196     71.316  -165.340
65.3566     71.625  -168.421
66.3073     71.920  -171.541
67.2717     72.203  -174.659
68.2502     72.477  -177.742
69.2429     72.744   179.184
70.2501     73.003   176.111
71.2719     73.250   172.999
72.3086     73.479   169.838
73.3603     73.690   166.670
74.4274     73.884   163.529
75.5099     74.066   160.443
76.6083     74.239   157.419
77.7226     74.405   154.432
78.8531     74.560   151.468
80.0000     74.700   148.524
81.1636     74.825   145.600
82.3442     74.940   142.727
83.5419     75.047   139.915
84.7570     75.148   137.132
85.9899     75.245   134.387
87.2406     75.334   131.694
88.5096     75.411   129.033
89.7970     75.481   126.414
91.1031     75.543   123.858
92.4282     75.598   121.353
93.7726     75.649   118.892
95.1366     75.695   116.477
96.5204     75.734   114.103
97.9243     75.768   111.777
99.3486     75.795   109.497
100.794     75.815   107.263
102.260     75.833   105.088
103.747     75.845   102.968
105.256     75.853   100.904
106.787     75.861    98.897
108.340     75.870    96.923
109.916     75.878    94.993
111.515     75.885    93.094
113.137     75.889    91.243
114.783     75.889    89.431
116.452     75.889    87.651
118.146     75.888    85.891
119.865     75.883    84.168
121.608     75.876    82.452
123.377     75.865    80.789
125.171     75.847    79.197
126.992     75.833    77.667
128.839     75.823    76.178
130.713     75.820    74.728
132.615     75.821    73.245
134.543     75.821    71.772
136.500     75.819    70.291
138.486     75.810    68.800
140.500     75.792    67.359
142.544     75.772    65.960
144.617     75.750    64.616
146.721     75.732    63.342
148.855     75.720    62.078
151.020     75.714    60.830
153.217     75.708    59.559
155.445     75.701    58.283
157.706     75.693    57.008
160.000     75.678    55.731
162.327     75.660    54.518
164.688     75.643    53.342
167.084     75.627    52.182
169.514     75.611    51.059
171.980     75.600    49.947
174.481     75.591    48.831
177.019     75.581    47.715
179.594     75.573    46.635
182.206     75.568    45.546
184.856     75.565    44.431
187.545     75.559    43.292
190.273     75.547    42.132
193.041     75.527    40.983
195.849     75.501    39.887
198.697     75.471    38.849
201.587     75.448    37.856
204.520     75.425    36.843
207.494     75.395    35.843
210.512     75.362    34.897
213.574     75.327    34.051
216.681     75.303    33.289
219.833     75.296    32.553
223.030     75.307    31.752
226.274     75.324    30.774
229.565     75.324    29.668
232.905     75.303    28.553
236.292     75.269    27.491
239.729     75.223    26.538
243.216     75.182    25.695
246.754     75.146    24.874
250.343     75.110    24.057
253.984     75.066    23.262
257.678     75.024    22.579
261.426     74.987    21.956
265.229     74.967    21.413
269.087     74.972    20.816
273.001     74.984    20.004
276.972     74.967    19.096
281.000     74.931    18.258
285.088     74.885    17.516
289.234     74.838    16.974
293.441     74.821    16.503
297.709     74.831    15.944
302.040     74.839    15.229
306.433     74.836    14.435
310.890     74.810    13.665
315.412     74.773    13.028
320.000     74.751    12.575
324.655     74.757    12.120
329.377     74.783    11.536
334.168     74.813    10.842
339.028     74.837     9.973
343.959     74.833     9.004
348.962     74.806     8.130
354.038     74.783     7.360
359.188     74.751     6.542
364.412     74.713     5.912
369.713     74.708     5.284
375.090     74.697     4.465
380.546     74.667     3.737
386.081     74.653     3.034
391.697     74.632     2.268
397.394     74.601     1.459
403.175     74.549     0.583
409.039     74.468    -0.042
414.989     74.401    -0.536
421.025     74.356    -0.835
427.149     74.339    -1.129
433.362     74.349    -1.551
439.665     74.351    -2.204
446.060     74.321    -3.050
452.548     74.249    -3.710
459.131     74.179    -4.084
465.809     74.134    -4.346
472.584     74.119    -4.452
479.458     74.150    -4.666
486.432     74.189    -5.158
493.507     74.201    -5.738
500.686     74.226    -6.171
507.968     74.278    -6.860
515.357     74.293    -7.909
522.853     74.254    -8.819
530.458     74.220    -9.633
538.174     74.153   -10.340
546.002     74.107   -10.760
553.943     74.096   -11.371
562.001     74.051   -12.096
570.175     73.998   -12.614
578.469     73.928   -13.261
586.883     73.830   -13.516
595.419     73.767   -13.490
604.080     73.738   -13.485
612.866     73.763   -13.583
621.780     73.778   -13.980
630.824     73.774   -14.336
640.000     73.784   -14.573
649.309     73.802   -14.784
658.753     73.867   -15.069
668.335     73.932   -15.753
678.056     73.990   -16.497
687.919     74.033   -17.542
697.925     74.008   -18.550
708.077     73.996   -19.138
718.376     74.024   -20.026
728.825     73.979   -21.326
739.426     73.870   -22.379
750.181     73.736   -23.094
761.093     73.570   -23.585
772.163     73.415   -23.237
783.394     73.397   -22.537
794.789     73.455   -22.437
806.349     73.522   -22.654
818.078     73.604   -23.108
829.977     73.667   -23.985
842.050     73.683   -24.786
854.298     73.701   -25.459
866.724     73.717   -26.170
879.330     73.705   -26.991
892.120     73.723   -27.722
905.097     73.716   -28.310
918.262     73.734   -28.806
931.618     73.800   -29.443
945.169     73.831   -30.008
958.917     73.891   -30.605
972.864     73.969   -31.606
987.015     73.959   -32.486
1001.37     73.998   -33.170
1015.94     74.028   -34.072
1030.71     74.062   -34.866
1045.71     74.147   -35.815
1060.92     74.234   -37.120
1076.35     74.266   -38.871
1092.00     74.209   -40.837
1107.89     74.034   -42.539
1124.00     73.834   -43.840
1140.35     73.605   -45.297
1156.94     73.202   -45.689
1173.77     72.970   -44.569
1190.84     72.950   -43.566
1208.16     72.967   -43.156
1225.73     73.016   -43.197
1243.56     73.068   -43.620
1261.65     73.044   -44.159
1280.00     73.050   -44.250
1298.62     73.127   -44.347
1317.51     73.222   -44.864
1336.67     73.330   -45.536
1356.11     73.463   -46.574
1375.84     73.545   -48.152
1395.85     73.601   -49.745
1416.15     73.632   -51.590
1436.75     73.614   -53.506
1457.65     73.578   -55.577
1478.85     73.497   -57.733
1500.36     73.356   -59.934
1522.19     73.188   -62.012
1544.33     72.948   -63.875
1566.79     72.694   -65.419
1589.58     72.450   -66.713
1612.70     72.215   -67.823
1636.16     72.024   -69.243
1659.95     71.807   -70.531
1684.10     71.594   -71.803
1708.60     71.423   -73.354
1733.45     71.232   -75.172
1758.66     71.055   -77.117
1784.24     70.900   -79.577
1810.19     70.709   -82.360
1836.52     70.479   -85.559
1863.24     70.180   -89.241
1890.34     69.776   -93.006
1917.83     69.258   -97.382
1945.73     68.612  -101.843
1974.03     67.726  -105.200
2002.74     66.853  -106.359
2031.87     66.484  -106.132
2061.43     66.517  -107.983
2091.41     66.562  -112.335
2121.83     66.578  -117.316
2152.69     66.574  -122.139
2184.01     66.619  -126.846
2215.77     66.792  -131.324
2248.00     67.033  -136.066
2280.70     67.343  -141.615
2313.87     67.675  -147.163
2347.53     67.981  -152.600
2381.68     68.270  -156.865
2416.32     68.595  -159.824
2451.46     68.982  -162.012
2487.12     69.447  -163.619
2523.30     69.989  -165.418
2560.00     70.534  -167.673
2597.24     71.045  -169.611
2635.01     71.533  -171.520
2673.34     71.923  -173.424
2712.23     72.234  -174.612
2751.68     72.534  -175.517
2791.70     72.861  -176.250
2832.31     73.213  -176.663
2873.50     73.604  -177.035
2915.30     74.007  -177.420
2957.70     74.358  -178.070
3000.72     74.616  -178.828
3044.37     74.765  -179.487
3088.65     74.787  -179.912
3133.58     74.720  -179.566
3179.16     74.696  -178.191
3225.40     74.768  -176.984
3272.31     74.806  -175.958
3319.91     74.806  -174.853
3368.20     74.757  -173.641
3417.19     74.661  -172.184
3466.89     74.520  -170.524
3517.32     74.338  -168.680
3568.48     74.104  -166.565
3620.39     73.807  -164.178
3673.05     73.466  -161.305
3726.47     73.099  -158.030
3780.67     72.687  -154.305
3835.67     72.298  -149.981
3891.46     71.923  -145.569
3948.06     71.491  -141.068
4005.49     70.996  -136.092
4063.75     70.383  -130.693
4122.86     69.584  -124.132
4182.82     68.719  -115.457
4243.66     67.952  -104.656
4305.39     67.447   -91.946
4368.01     67.403   -78.731
4431.55     67.654   -67.032
4496.01     67.937   -56.824
4561.40     68.141   -47.784
4627.75     68.167   -38.740
4695.06     68.143   -28.410
4763.35     68.251   -17.050
4832.64     68.591    -5.067
4902.93     69.227     6.168
4974.24     70.004    15.732
5046.60     70.815    23.638
5120.00     71.507    30.038
5194.47     72.005    35.752
5270.03     72.332    41.306
5346.68     72.501    47.056
5424.45     72.552    53.048
5503.35     72.483    59.239
5583.40     72.278    65.893
5664.61     71.952    73.510
5747.01     71.592    82.495
5830.60     71.284    92.767
5915.41     71.070   104.016
6001.45     70.975   115.848
6088.74     70.995   128.068
6177.30     71.153   140.592
6267.15     71.486   152.952
6358.31     71.949   164.472
6450.80     72.436   174.682
6544.62     72.831  -176.426
6639.82     73.049  -168.459
6736.40     73.055  -160.813
6834.38     72.850  -152.745
6933.79     72.468  -143.541
7034.64     71.989  -132.816
7136.96     71.490  -120.691
7240.77     71.046  -107.477
7346.09     70.706   -93.688
7452.94     70.439   -79.824
7561.35     70.186   -65.946
7671.33     69.902   -51.698
7782.91     69.607   -36.449
7896.12     69.381   -19.968
8010.97     69.267    -2.570
8127.49     69.293    15.480
8245.71     69.488    33.665
8365.65     69.835    51.210
8487.33     70.268    67.683
8610.78     70.716    83.078
8736.03     71.127    97.443
8863.09     71.440   110.974
8992.01     71.583   124.115
9122.80     71.544   137.358
9255.50     71.343   151.137
9390.12     71.005   165.868
9526.70     70.590  -178.045
9665.27     70.208  -160.456
9805.86     69.970  -141.689
9948.49     69.936  -122.499
10093.2     70.049  -103.918
10240.0     70.158   -86.397
10388.9     70.151   -69.537
10540.1     69.982   -52.734
10693.4     69.651   -35.326
10848.9     69.201   -16.834
11006.7     68.701     2.898
11166.8     68.221    23.850
11329.2     67.813    45.751
11494.0     67.518    68.295
11661.2     67.349    90.970
11830.8     67.216   113.428
12002.9     67.027   136.092
12177.5     66.780   159.466
12354.6     66.511  -176.144
12534.3     66.325  -150.732
12716.6     66.331  -125.028
12901.6     66.497   -99.921
13089.2     66.690   -75.843
13279.6     66.777   -52.522
13472.8     66.707   -29.200
13668.8     66.489    -5.188
13867.6     66.194    19.912
14069.3     65.906    46.001
14273.9     65.637    72.904
14481.5     65.408   100.506
14692.2     65.237   128.522
14905.9     65.108   156.858
15122.7     65.030  -174.653
15342.7     64.980  -146.249
15565.8     64.905  -117.915
15792.2     64.748   -89.567
16021.9     64.468   -60.830
16255.0     64.098   -31.122
16491.4     63.712    -0.168
16731.3     63.370    31.901
16974.7     63.098    64.738
17221.6     62.864    97.974
17472.1     62.597   131.399
17726.2     62.216   165.245
17984.0     61.694  -159.714
18245.6     61.137  -122.602
18511.0     60.750   -83.439
18780.2     60.713   -43.194
19053.4     61.069    -2.994
19330.5     61.693    35.967
19611.7     62.377    72.868
19897.0     62.902   107.956
20186.4     63.133   142.342
20480.0     63.077   177.310
20777.9     62.799  -146.180
21080.1     62.402  -107.713
21386.7     62.040   -67.536
21697.8     61.799   -26.344
22013.4     61.644    15.176
22333.6     61.517    56.775
22658.4     61.356    98.635
22988.0     61.116   141.031
23322.4     60.811  -175.771
23661.6     60.475  -131.760
24005.8     60.106   -87.060
24355.0     59.670   -41.394
24709.2     59.176     5.673
25068.6     58.708    54.270
25433.2     58.326   104.021
25803.2     57.989   154.419
26178.5     57.661  -154.621
26559.3     57.332  -102.793
26945.6     57.005   -49.729
27337.5     56.778     4.593
27735.2     56.746    59.662
28138.6     56.857   114.808
28547.9     56.994   169.557
28963.1     57.022  -135.936
29384.4     56.886   -80.793
29811.8     56.653   -24.031
30245.4     56.478    34.601
30685.3     56.520    94.361
31131.7     56.793   154.146
31584.5     57.146  -146.854
32043.9     57.399   -88.731
32510.0     57.431   -30.659
32982.8     57.224    28.706
33462.6     56.899    90.320
33949.3     56.645   154.090
34443.1     56.598  -140.874
34944.1     56.752   -75.619
35452.4     56.990   -10.810
35968.0     57.198    53.413
36491.2     57.255   117.310
37022.0     57.073  -178.511
37560.5     56.687  -113.120
38106.8     56.157   -53.336
38661.1     55.631     2.669
39223.4     55.167    44.242
