Freq[Hz]     dBSPL  Phase[Deg]
Freq[Hz]     dBSPL  Phase[Deg]
5.00000     -7.875   -18.225
5.07273     -7.532   -18.320
5.14651     -7.163   -18.420
5.22137     -6.753   -18.525
5.29732     -6.326   -18.633
5.37437     -5.882   -18.746
5.45254     -5.437   -18.859
5.53185     -4.993   -18.975
5.61231     -4.548   -19.092
5.69394     -4.104   -19.210
5.77676     -3.659   -19.331
5.86079     -3.215   -19.453
5.94604     -2.770   -19.577
6.03252     -2.326   -19.703
6.12027     -1.881   -19.831
6.20929     -1.437   -19.960
6.29961     -0.992   -20.092
6.39124     -0.548   -20.225
6.48420     -0.103   -20.360
6.57851      0.341   -20.498
6.67420      0.786   -20.637
6.77128      1.231   -20.778
6.86977      1.675   -20.922
6.96969      2.120   -21.067
7.07107      2.564   -21.215
7.17392      3.009   -21.365
7.27827      3.454   -21.517
7.38413      3.898   -21.671
7.49154      4.343   -21.827
7.60050      4.788   -21.986
7.71105      5.232   -22.147
7.82321      5.677   -22.310
7.93701      6.122   -22.476
8.05245      6.566   -22.644
8.16958      7.011   -22.815
8.28841      7.456   -22.988
8.40896      7.901   -23.164
8.53128      8.345   -23.342
8.65537      8.790   -23.523
8.78126      9.235   -23.707
8.90899      9.680   -23.893
9.03857     10.125   -24.082
9.17004     10.569   -24.274
9.30342     11.014   -24.469
9.43874     11.459   -24.666
9.57603     11.904   -24.867
9.71532     12.349   -25.070
9.85663     12.794   -25.277
10.0000     13.239   -25.486
10.1455     13.684   -25.698
10.2930     14.129   -25.914
10.4427     14.574   -26.133
10.5946     15.019   -26.355
10.7487     15.464   -26.580
10.9051     15.909   -26.809
11.0637     16.354   -27.041
11.2246     16.799   -27.276
11.3879     17.245   -27.515
11.5535     17.690   -27.758
11.7216     18.135   -28.004
11.8921     18.580   -28.254
12.0650     19.026   -28.507
12.2405     19.471   -28.764
12.4186     19.916   -29.025
12.5992     20.362   -29.290
12.7825     20.807   -29.559
12.9684     21.253   -29.832
13.1570     21.698   -30.109
13.3484     22.144   -30.390
13.5426     22.590   -30.676
13.7395     23.035   -30.965
13.9394     23.481   -31.259
14.1421     23.927   -31.558
14.3478     24.373   -31.861
14.5565     24.818   -32.168
14.7683     25.264   -32.480
14.9831     25.710   -32.797
15.2010     26.156   -33.118
15.4221     26.603   -33.445
15.6464     27.049   -33.776
15.8740     27.495   -34.113
16.1049     27.941   -34.454
16.3392     28.388   -34.801
16.5768     28.834   -35.153
16.8179     29.281   -35.510
17.0626     29.727   -35.873
17.3107     30.174   -36.242
17.5625     30.621   -36.616
17.8180     31.067   -36.996
18.0771     31.514   -37.382
18.3401     31.961   -37.773
18.6068     32.408   -38.171
18.8775     32.856   -38.575
19.1521     33.303   -38.986
19.4306     33.750   -39.403
19.7133     34.205   -39.815
20.0000     34.674   -40.209
20.2909     35.174   -40.610
20.5860     35.708   -41.085
20.8855     36.249   -41.810
21.1893     36.773   -42.844
21.4975     37.250   -43.995
21.8102     37.656   -45.018
22.1274     38.012   -45.714
22.4492     38.367   -45.980
22.7758     38.759   -45.898
23.1071     39.202   -45.743
23.4432     39.699   -45.780
23.7841     40.219   -46.090
24.1301     40.727   -46.656
24.4811     41.215   -47.413
24.8372     41.679   -48.294
25.1984     42.134   -49.225
25.5649     42.591   -50.123
25.9368     43.061   -50.988
26.3141     43.548   -51.837
26.6968     44.041   -52.727
27.0851     44.531   -53.712
27.4791     45.010   -54.759
27.8788     45.471   -55.841
28.2843     45.917   -56.936
28.6957     46.359   -57.984
29.1131     46.804   -58.986
29.5365     47.263   -59.978
29.9661     47.738   -60.978
30.4020     48.223   -62.033
30.8442     48.711   -63.164
31.2929     49.188   -64.355
31.7480     49.656   -65.597
32.2098     50.118   -66.863
32.6783     50.576   -68.106
33.1536     51.048   -69.368
33.6359     51.537   -70.712
34.1251     52.036   -72.067
34.6215     52.521   -73.555
35.1250     52.979   -75.109
35.6359     53.416   -76.468
36.1543     53.844   -77.757
36.6802     54.283   -79.072
37.2137     54.750   -80.375
37.7550     55.243   -81.804
38.3041     55.746   -83.402
38.8613     56.236   -85.091
39.4265     56.712   -86.741
40.0000     57.177   -88.337
40.5818     57.640   -89.939
41.1721     58.108   -91.593
41.7710     58.579   -93.307
42.3785     59.051   -95.089
42.9949     59.521   -96.932
43.6203     59.993   -98.782
44.2548     60.462  -100.660
44.8985     60.930  -102.571
45.5515     61.401  -104.492
46.2141     61.869  -106.468
46.8863     62.332  -108.500
47.5683     62.788  -110.546
48.2602     63.240  -112.635
48.9621     63.693  -114.784
49.6743     64.146  -116.981
50.3968     64.600  -119.262
51.1299     65.056  -121.615
51.8736     65.506  -124.007
52.6281     65.948  -126.413
53.3936     66.385  -128.811
54.1702     66.816  -131.263
54.9581     67.241  -133.815
55.7575     67.659  -136.439
56.5685     68.069  -139.155
57.3914     68.470  -141.927
58.2261     68.862  -144.692
59.0730     69.246  -147.472
59.9323     69.624  -150.290
60.8040     69.996  -153.145
61.6884     70.361  -156.061
62.5857     70.716  -159.010
63.4960     71.058  -162.015
64.4196     71.382  -165.073
65.3566     71.689  -168.150
66.3073     71.982  -171.253
67.2717     72.266  -174.346
68.2502     72.543  -177.408
69.2429     72.815   179.522
70.2501     73.078   176.430
71.2719     73.325   173.293
72.3086     73.551   170.119
73.3603     73.759   166.950
74.4274     73.951   163.818
75.5099     74.133   160.745
76.6083     74.307   157.727
77.7226     74.474   154.739
78.8531     74.630   151.773
80.0000     74.770   148.832
81.1636     74.895   145.907
82.3442     75.011   143.028
83.5419     75.117   140.203
84.7570     75.216   137.406
85.9899     75.308   134.658
87.2406     75.391   131.976
88.5096     75.465   129.342
89.7970     75.532   126.757
91.1031     75.592   124.237
92.4282     75.648   121.766
93.7726     75.701   119.334
95.1366     75.749   116.943
96.5204     75.790   114.587
97.9243     75.826   112.272
99.3486     75.855   110.000
100.794     75.877   107.772
102.260     75.895   105.602
103.747     75.906   103.493
105.256     75.914   101.448
106.787     75.922    99.466
108.340     75.933    97.519
109.916     75.943    95.615
111.515     75.954    93.736
113.137     75.963    91.895
114.783     75.969    90.079
116.452     75.973    88.280
118.146     75.973    86.490
119.865     75.968    84.738
121.608     75.957    83.001
123.377     75.940    81.331
125.171     75.917    79.751
126.992     75.898    78.242
128.839     75.884    76.778
130.713     75.875    75.365
132.615     75.872    73.937
134.543     75.869    72.533
136.500     75.868    71.136
138.486     75.865    69.730
140.500     75.857    68.353
142.544     75.850    66.987
144.617     75.841    65.633
146.721     75.832    64.308
148.855     75.822    62.983
151.020     75.809    61.689
153.217     75.793    60.413
155.445     75.776    59.186
157.706     75.761    57.999
160.000     75.747    56.820
162.327     75.735    55.699
164.688     75.726    54.597
167.084     75.719    53.499
169.514     75.715    52.437
171.980     75.718    51.364
174.481     75.726    50.247
177.019     75.730    49.093
179.594     75.728    47.935
182.206     75.721    46.782
184.856     75.709    45.649
187.545     75.694    44.546
190.273     75.678    43.469
193.041     75.662    42.422
195.849     75.646    41.400
198.697     75.630    40.406
201.587     75.620    39.417
204.520     75.606    38.384
207.494     75.580    37.369
210.512     75.546    36.435
213.574     75.512    35.636
216.681     75.496    34.948
219.833     75.508    34.236
223.030     75.533    33.385
226.274     75.556    32.331
229.565     75.553    31.158
232.905     75.516    30.020
236.292     75.463    29.055
239.729     75.409    28.293
243.216     75.375    27.666
246.754     75.360    27.042
250.343     75.351    26.385
253.984     75.347    25.720
257.678     75.352    25.044
261.426     75.363    24.317
265.229     75.379    23.518
269.087     75.386    22.627
273.001     75.380    21.666
276.972     75.343    20.727
281.000     75.293    19.990
285.088     75.257    19.442
289.234     75.247    18.976
293.441     75.265    18.459
297.709     75.301    17.795
302.040     75.330    16.953
306.433     75.347    16.040
310.890     75.341    15.056
315.412     75.307    14.146
320.000     75.270    13.427
324.655     75.239    12.747
329.377     75.208    12.154
334.168     75.200    11.657
339.028     75.207    11.036
343.959     75.205    10.387
348.962     75.209     9.734
354.038     75.213     9.040
359.188     75.199     8.316
364.412     75.190     7.739
369.713     75.199     7.114
375.090     75.201     6.405
380.546     75.205     5.771
386.081     75.218     5.042
391.697     75.221     4.322
397.394     75.221     3.546
403.175     75.197     2.724
409.039     75.159     2.207
414.989     75.153     1.758
421.025     75.176     1.328
427.149     75.214     0.800
433.362     75.271     0.084
439.665     75.300    -0.900
446.060     75.282    -1.929
452.548     75.254    -2.648
459.131     75.242    -3.277
465.809     75.249    -3.904
472.584     75.296    -4.595
479.458     75.333    -5.762
486.432     75.301    -7.146
493.507     75.187    -8.189
500.686     75.080    -8.679
507.968     75.015    -8.890
515.357     74.986    -9.018
522.853     74.994    -9.035
530.458     75.072    -9.296
538.174     75.140    -9.932
546.002     75.215   -10.769
553.943     75.265   -11.951
562.001     75.262   -13.211
570.175     75.218   -14.345
578.469     75.122   -15.236
586.883     75.030   -15.603
595.419     75.000   -15.699
604.080     74.997   -15.947
612.866     75.046   -16.510
621.780     75.054   -17.211
630.824     75.051   -17.810
640.000     75.065   -18.380
649.309     75.078   -18.721
658.753     75.159   -19.246
668.335     75.239   -20.244
678.056     75.282   -21.492
687.919     75.289   -22.844
697.925     75.226   -23.910
708.077     75.178   -24.505
718.376     75.189   -25.058
728.825     75.179   -25.778
739.426     75.179   -26.388
750.181     75.212   -27.018
761.093     75.229   -27.864
772.163     75.241   -28.483
783.394     75.303   -29.127
794.789     75.372   -30.159
806.349     75.422   -31.299
818.078     75.477   -32.613
829.977     75.476   -34.172
842.050     75.438   -35.479
854.298     75.415   -36.559
866.724     75.393   -37.650
879.330     75.360   -38.694
892.120     75.363   -39.647
905.097     75.375   -40.777
918.262     75.361   -42.061
931.618     75.331   -43.284
945.169     75.318   -44.452
958.917     75.286   -45.612
972.864     75.287   -46.793
987.015     75.296   -48.247
1001.37     75.262   -49.712
1015.94     75.238   -51.162
1030.71     75.214   -52.771
1045.71     75.124   -54.181
1060.92     75.059   -55.368
1076.35     75.007   -56.722
1092.00     74.901   -58.168
1107.89     74.787   -59.457
1124.00     74.696   -60.564
1140.35     74.605   -62.184
1156.94     74.333   -63.058
1173.77     74.196   -62.581
1190.84     74.256   -62.311
1208.16     74.347   -62.703
1225.73     74.498   -63.773
1243.56     74.592   -65.648
1261.65     74.548   -67.402
1280.00     74.517   -68.952
1298.62     74.460   -70.170
1317.51     74.432   -71.180
1336.67     74.479   -72.433
1356.11     74.476   -74.046
1375.84     74.459   -75.544
1395.85     74.414   -77.340
1416.15     74.273   -78.822
1436.75     74.191   -79.707
1457.65     74.137   -80.779
1478.85     74.106   -81.599
1500.36     74.146   -82.359
1522.19     74.209   -83.713
1544.33     74.294   -84.833
1566.79     74.405   -86.367
1589.58     74.512   -88.227
1612.70     74.619   -90.192
1636.16     74.690   -92.742
1659.95     74.738   -95.204
1684.10     74.721   -97.914
1708.60     74.693  -100.493
1733.45     74.666  -102.693
1758.66     74.638  -104.939
1784.24     74.641  -106.957
1810.19     74.649  -109.097
1836.52     74.655  -111.479
1863.24     74.659  -113.910
1890.34     74.644  -116.911
1917.83     74.631  -120.253
1945.73     74.595  -123.732
1974.03     74.459  -127.551
2002.74     74.205  -130.683
2031.87     74.014  -132.736
2061.43     73.888  -135.147
2091.41     73.698  -137.841
2121.83     73.499  -139.966
2152.69     73.324  -141.893
2184.01     73.225  -143.466
2215.77     73.226  -145.185
2248.00     73.240  -147.459
2280.70     73.264  -150.075
2313.87     73.301  -153.063
2347.53     73.271  -156.314
2381.68     73.197  -159.282
2416.32     73.086  -162.015
2451.46     72.968  -164.135
2487.12     72.908  -165.892
2523.30     72.941  -167.703
2560.00     73.051  -169.907
2597.24     73.191  -172.634
2635.01     73.288  -175.915
2673.34     73.307  -179.532
2712.23     73.221   176.882
2751.68     73.078   173.719
2791.70     72.946   171.094
2832.31     72.888   169.009
2873.50     72.945   167.138
2915.30     73.114   164.953
2957.70     73.332   162.296
3000.72     73.538   159.097
3044.37     73.661   155.364
3088.65     73.680   151.623
3133.58     73.619   148.454
3179.16     73.648   145.997
3225.40     73.755   142.971
3272.31     73.810   139.885
3319.91     73.877   136.948
3368.20     73.967   133.976
3417.19     74.062   130.874
3466.89     74.141   127.569
3517.32     74.191   124.173
3568.48     74.209   120.863
3620.39     74.207   117.802
3673.05     74.219   114.980
3726.47     74.261   112.233
3780.67     74.320   109.416
3835.67     74.381   106.516
3891.46     74.428   103.561
3948.06     74.473   100.673
4005.49     74.531    97.806
4063.75     74.607    94.793
4122.86     74.670    91.455
4182.82     74.676    87.891
4243.66     74.593    84.447
4305.39     74.450    81.512
4368.01     74.303    79.192
4431.55     74.197    77.305
4496.01     74.152    75.529
4561.40     74.148    73.649
4627.75     74.144    71.693
4695.06     74.142    69.863
4763.35     74.154    68.148
4832.64     74.191    66.479
4902.93     74.257    64.788
4974.24     74.347    62.912
5046.60     74.450    60.762
5120.00     74.547    58.363
5194.47     74.613    55.829
5270.03     74.650    53.331
5346.68     74.674    50.947
5424.45     74.697    48.575
5503.35     74.721    46.103
5583.40     74.736    43.473
5664.61     74.721    40.708
5747.01     74.661    37.993
5830.60     74.564    35.549
5915.41     74.460    33.416
6001.45     74.368    31.410
6088.74     74.275    29.368
6177.30     74.154    27.347
6267.15     73.989    25.534
6358.31     73.795    24.133
6450.80     73.610    23.238
6544.62     73.477    22.726
6639.82     73.411    22.311
6736.40     73.396    21.851
6834.38     73.431    21.375
6933.79     73.529    20.743
7034.64     73.668    19.764
7136.96     73.818    18.465
7240.77     73.969    16.839
7346.09     74.096    14.883
7452.94     74.184    12.769
7561.35     74.241    10.574
7671.33     74.266     8.346
7782.91     74.260     6.209
7896.12     74.239     4.164
8010.97     74.198     2.180
8127.49     74.130     0.273
8245.71     74.049    -1.597
8365.65     73.947    -3.447
8487.33     73.816    -5.157
8610.78     73.688    -6.625
8736.03     73.596    -7.909
8863.09     73.537    -9.204
8992.01     73.498   -10.626
9122.80     73.472   -12.189
9255.50     73.446   -13.950
9390.12     73.391   -15.912
9526.70     73.283   -17.912
9665.27     73.122   -19.687
9805.86     72.950   -21.119
9948.49     72.797   -22.320
10093.2     72.673   -23.406
10240.0     72.581   -24.521
10388.9     72.500   -25.696
10540.1     72.430   -26.832
10693.4     72.382   -27.993
10848.9     72.358   -29.314
11006.7     72.337   -30.932
11166.8     72.281   -32.809
11329.2     72.178   -34.766
11494.0     72.025   -36.708
11661.2     71.827   -38.438
11830.8     71.617   -39.865
12002.9     71.413   -41.091
12177.5     71.218   -42.105
12354.6     71.053   -42.961
12534.3     70.911   -43.837
12716.6     70.779   -44.742
12901.6     70.663   -45.738
13089.2     70.542   -46.905
13279.6     70.407   -48.129
13472.8     70.263   -49.384
13668.8     70.099   -50.622
13867.6     69.925   -51.785
14069.3     69.747   -52.883
14273.9     69.567   -53.881
14481.5     69.401   -54.835
14692.2     69.247   -55.803
14905.9     69.108   -56.818
15122.7     68.976   -57.916
15342.7     68.848   -59.087
15565.8     68.732   -60.306
15792.2     68.628   -61.551
16021.9     68.546   -62.901
16255.0     68.485   -64.442
16491.4     68.426   -66.274
16731.3     68.348   -68.466
16974.7     68.224   -70.948
17221.6     68.020   -73.635
17472.1     67.708   -76.339
17726.2     67.263   -78.732
17984.0     66.681   -80.511
18245.6     65.999   -81.334
18511.0     65.278   -80.994
18780.2     64.611   -79.585
19053.4     64.093   -77.314
19330.5     63.772   -74.595
19611.7     63.656   -72.024
19897.0     63.700   -70.009
20186.4     63.836   -68.723
20480.0     64.010   -68.132
20777.9     64.185   -68.059
21080.1     64.348   -68.294
21386.7     64.501   -68.658
21697.8     64.643   -69.111
22013.4     64.784   -69.726
22333.6     64.923   -70.600
22658.4     65.042   -71.818
22988.0     65.127   -73.399
23322.4     65.172   -75.290
23661.6     65.182   -77.418
24005.8     65.164   -79.694
24355.0     65.115   -82.035
24709.2     65.024   -84.396
25068.6     64.869   -86.710
25433.2     64.624   -88.821
25803.2     64.289   -90.574
26178.5     63.898   -91.914
26559.3     63.499   -92.863
26945.6     63.139   -93.584
27337.5     62.821   -94.217
27735.2     62.509   -94.599
28138.6     62.180   -94.379
28547.9     61.843   -93.279
28963.1     61.556   -91.231
29384.4     61.411   -88.529
29811.8     61.472   -85.824
30245.4     61.714   -83.782
30685.3     62.054   -82.662
31131.7     62.433   -82.317
31584.5     62.850   -82.503
32043.9     63.330   -83.118
32510.0     63.881   -84.299
32982.8     64.484   -86.309
33462.6     65.092   -89.363
33949.3     65.647   -93.514
34443.1     66.111   -98.584
34944.1     66.473  -104.311
35452.4     66.737  -110.515
35968.0     66.911  -117.082
36491.2     66.997  -123.902
37022.0     66.997  -130.916
37560.5     66.913  -138.123
38106.8     66.766  -145.195
38661.1     66.551  -152.173
39223.4     66.319  -158.486
