Freq[Hz]     dBSPL  Phase[Deg]
Freq[Hz]     dBSPL  Phase[Deg]
5.00000     -8.195   -17.400
5.07273     -7.852   -17.498
5.14651     -7.481   -17.601
5.22137     -7.070   -17.711
5.29732     -6.643   -17.825
5.37437     -6.197   -17.943
5.45254     -5.751   -18.063
5.53185     -5.305   -18.184
5.61231     -4.860   -18.308
5.69394     -4.414   -18.433
5.77676     -3.968   -18.560
5.86079     -3.522   -18.689
5.94604     -3.076   -18.819
6.03252     -2.630   -18.952
6.12027     -2.185   -19.086
6.20929     -1.739   -19.223
6.29961     -1.293   -19.361
6.39124     -0.847   -19.502
6.48420     -0.401   -19.644
6.57851      0.045   -19.789
6.67420      0.491   -19.936
6.77128      0.937   -20.084
6.86977      1.383   -20.236
6.96969      1.828   -20.389
7.07107      2.274   -20.544
7.17392      2.720   -20.702
7.27827      3.166   -20.862
7.38413      3.612   -21.025
7.49154      4.058   -21.189
7.60050      4.504   -21.357
7.71105      4.950   -21.526
7.82321      5.396   -21.698
7.93701      5.842   -21.873
8.05245      6.288   -22.050
8.16958      6.734   -22.230
8.28841      7.180   -22.413
8.40896      7.627   -22.598
8.53128      8.073   -22.785
8.65537      8.519   -22.976
8.78126      8.965   -23.169
8.90899      9.411   -23.366
9.03857      9.857   -23.565
9.17004     10.303   -23.767
9.30342     10.750   -23.972
9.43874     11.196   -24.180
9.57603     11.642   -24.391
9.71532     12.088   -24.605
9.85663     12.535   -24.823
10.0000     12.981   -25.043
10.1455     13.427   -25.267
10.2930     13.873   -25.494
10.4427     14.320   -25.725
10.5946     14.766   -25.958
10.7487     15.213   -26.196
10.9051     15.659   -26.437
11.0637     16.106   -26.681
11.2246     16.552   -26.929
11.3879     16.999   -27.181
11.5535     17.445   -27.436
11.7216     17.892   -27.695
11.8921     18.338   -27.958
12.0650     18.785   -28.225
12.2405     19.232   -28.496
12.4186     19.678   -28.771
12.5992     20.125   -29.050
12.7825     20.572   -29.333
12.9684     21.019   -29.620
13.1570     21.466   -29.912
13.3484     21.912   -30.208
13.5426     22.359   -30.509
13.7395     22.806   -30.814
13.9394     23.254   -31.123
14.1421     23.701   -31.437
14.3478     24.148   -31.756
14.5565     24.595   -32.080
14.7683     25.042   -32.408
14.9831     25.490   -32.742
15.2010     25.937   -33.080
15.4221     26.384   -33.424
15.6464     26.832   -33.773
15.8740     27.279   -34.127
16.1049     27.727   -34.486
16.3392     28.175   -34.851
16.5768     28.622   -35.222
16.8179     29.070   -35.598
17.0626     29.518   -35.980
17.3107     29.966   -36.368
17.5625     30.414   -36.761
17.8180     30.862   -37.161
18.0771     31.311   -37.567
18.3401     31.759   -37.979
18.6068     32.207   -38.398
18.8775     32.656   -38.823
19.1521     33.105   -39.255
19.4306     33.553   -39.694
19.7133     34.009   -40.124
20.0000     34.482   -40.529
20.2909     34.986   -40.924
20.5860     35.528   -41.374
20.8855     36.080   -42.069
21.1893     36.616   -43.080
21.4975     37.104   -44.230
21.8102     37.520   -45.284
22.1274     37.883   -46.038
22.4492     38.240   -46.367
22.7758     38.629   -46.341
23.1071     39.068   -46.229
23.4432     39.558   -46.295
23.7841     40.073   -46.616
24.1301     40.580   -47.180
24.4811     41.067   -47.931
24.8372     41.534   -48.809
25.1984     41.990   -49.742
25.5649     42.448   -50.655
25.9368     42.918   -51.544
26.3141     43.406   -52.410
26.6968     43.899   -53.310
27.0851     44.388   -54.299
27.4791     44.867   -55.343
27.8788     45.328   -56.421
28.2843     45.775   -57.514
28.6957     46.219   -58.562
29.1131     46.668   -59.571
29.5365     47.132   -60.579
29.9661     47.611   -61.603
30.4020     48.099   -62.695
30.8442     48.587   -63.868
31.2929     49.064   -65.096
31.7480     49.530   -66.370
32.2098     49.991   -67.659
32.6783     50.450   -68.915
33.1536     50.924   -70.192
33.6359     51.413   -71.560
34.1251     51.914   -72.945
34.6215     52.400   -74.479
35.1250     52.855   -76.088
35.6359     53.287   -77.488
36.1543     53.709   -78.819
36.6802     54.141   -80.172
37.2137     54.602   -81.491
37.7550     55.090   -82.930
38.3041     55.590   -84.529
38.8613     56.079   -86.213
39.4265     56.552   -87.859
40.0000     57.015   -89.455
40.5818     57.475   -91.066
41.1721     57.939   -92.732
41.7710     58.404   -94.446
42.3785     58.870   -96.202
42.9949     59.339   -97.998
43.6203     59.814   -99.800
44.2548     60.291  -101.646
44.8985     60.769  -103.557
45.5515     61.249  -105.509
46.2141     61.721  -107.538
46.8863     62.186  -109.622
47.5683     62.641  -111.713
48.2602     63.092  -113.840
48.9621     63.544  -116.020
49.6743     63.995  -118.248
50.3968     64.447  -120.559
51.1299     64.901  -122.936
51.8736     65.349  -125.351
52.6281     65.788  -127.777
53.3936     66.221  -130.187
54.1702     66.650  -132.638
54.9581     67.075  -135.184
55.7575     67.495  -137.804
56.5685     67.908  -140.525
57.3914     68.312  -143.319
58.2261     68.706  -146.117
59.0730     69.091  -148.936
59.9323     69.468  -151.790
60.8040     69.840  -154.675
61.6884     70.203  -157.619
62.5857     70.558  -160.592
63.4960     70.901  -163.619
64.4196     71.226  -166.710
65.3566     71.534  -169.831
66.3073     71.826  -172.987
67.2717     72.105  -176.135
68.2502     72.375  -179.236
69.2429     72.639   177.681
70.2501     72.897   174.602
71.2719     73.145   171.483
72.3086     73.375   168.312
73.3603     73.587   165.130
74.4274     73.783   161.967
75.5099     73.966   158.855
76.6083     74.140   155.801
77.7226     74.305   152.781
78.8531     74.460   149.786
80.0000     74.598   146.814
81.1636     74.721   143.873
82.3442     74.834   140.994
83.5419     74.942   138.178
84.7570     75.046   135.385
85.9899     75.147   132.619
87.2406     75.240   129.891
88.5096     75.321   127.181
89.7970     75.392   124.510
91.1031     75.454   121.905
92.4282     75.508   119.352
93.7726     75.559   116.846
95.1366     75.603   114.388
96.5204     75.641   111.973
97.9243     75.674   109.609
99.3486     75.700   107.293
100.794     75.720   105.022
102.260     75.739   102.806
103.747     75.751   100.639
105.256     75.761    98.521
106.787     75.769    96.452
108.340     75.777    94.410
109.916     75.783    92.407
111.515     75.785    90.431
113.137     75.780    88.508
114.783     75.770    86.639
116.452     75.757    84.831
118.146     75.745    83.079
119.865     75.734    81.383
121.608     75.725    79.698
123.377     75.716    78.056
125.171     75.702    76.453
126.992     75.690    74.892
128.839     75.680    73.374
130.713     75.676    71.911
132.615     75.678    70.438
134.543     75.684    68.984
136.500     75.694    67.501
138.486     75.700    65.962
140.500     75.695    64.421
142.544     75.685    62.882
144.617     75.664    61.380
146.721     75.641    59.965
148.855     75.622    58.590
151.020     75.609    57.251
153.217     75.599    55.897
155.445     75.587    54.525
157.706     75.572    53.136
160.000     75.546    51.748
162.327     75.512    50.438
164.688     75.478    49.199
167.084     75.444    48.011
169.514     75.414    46.876
171.980     75.388    45.773
174.481     75.369    44.685
177.019     75.351    43.609
179.594     75.339    42.570
182.206     75.336    41.526
184.856     75.337    40.449
187.545     75.342    39.319
190.273     75.341    38.128
193.041     75.331    36.920
195.849     75.312    35.728
198.697     75.284    34.589
201.587     75.258    33.504
204.520     75.233    32.404
207.494     75.199    31.334
210.512     75.164    30.324
213.574     75.125    29.391
216.681     75.090    28.545
219.833     75.068    27.772
223.030     75.066    27.004
226.274     75.082    26.117
229.565     75.095    25.091
232.905     75.095    24.015
236.292     75.093    22.916
239.729     75.075    21.783
243.216     75.045    20.685
246.754     75.007    19.642
250.343     74.965    18.625
253.984     74.911    17.653
257.678     74.853    16.867
261.426     74.814    16.156
265.229     74.792    15.449
269.087     74.783    14.680
273.001     74.782    13.748
276.972     74.752    12.733
281.000     74.706    11.830
285.088     74.663    11.043
289.234     74.628    10.359
293.441     74.619     9.633
297.709     74.615     8.766
302.040     74.594     7.781
306.433     74.545     6.776
310.890     74.467     6.017
315.412     74.404     5.490
320.000     74.372     5.087
324.655     74.382     4.648
329.377     74.415     3.962
334.168     74.445     3.022
339.028     74.448     1.925
343.959     74.403     0.740
348.962     74.325    -0.172
354.038     74.251    -0.853
359.188     74.183    -1.447
364.412     74.134    -1.799
369.713     74.148    -2.165
375.090     74.185    -2.899
380.546     74.193    -3.807
386.081     74.193    -4.792
391.697     74.170    -5.820
397.394     74.116    -6.945
403.175     74.024    -8.020
409.039     73.900    -8.689
414.989     73.796    -9.191
421.025     73.703    -9.337
427.149     73.667    -9.271
433.362     73.696    -9.410
439.665     73.739    -9.868
446.060     73.785   -10.715
452.548     73.771   -11.884
459.131     73.690   -12.800
465.809     73.612   -13.399
472.584     73.535   -13.727
479.458     73.515   -13.753
486.432     73.569   -13.922
493.507     73.630   -14.508
500.686     73.682   -15.202
507.968     73.733   -16.253
515.357     73.717   -17.653
522.853     73.616   -18.806
530.458     73.525   -19.601
538.174     73.413   -20.165
546.002     73.341   -20.349
553.943     73.339   -20.749
562.001     73.287   -21.382
570.175     73.246   -21.596
578.469     73.219   -22.112
586.883     73.132   -22.342
595.419     73.112   -22.069
604.080     73.158   -22.051
612.866     73.264   -22.242
621.780     73.386   -22.945
630.824     73.458   -24.104
640.000     73.487   -25.193
649.309     73.489   -26.220
658.753     73.488   -27.238
668.335     73.453   -28.354
678.056     73.418   -29.113
687.919     73.375   -30.030
697.925     73.273   -30.668
708.077     73.223   -30.621
718.376     73.264   -30.676
728.825     73.325   -31.280
739.426     73.381   -32.072
750.181     73.399   -32.907
761.093     73.396   -33.951
772.163     73.332   -34.617
783.394     73.318   -34.726
794.789     73.364   -35.230
806.349     73.413   -35.669
818.078     73.542   -36.177
829.977     73.668   -37.349
842.050     73.750   -38.535
854.298     73.840   -39.618
866.724     73.894   -41.113
879.330     73.911   -42.760
892.120     73.901   -44.037
905.097     73.896   -45.287
918.262     73.918   -46.587
931.618     73.933   -47.764
945.169     73.966   -49.012
958.917     73.994   -50.345
972.864     74.048   -51.797
987.015     74.092   -53.490
1001.37     74.127   -55.162
1015.94     74.179   -57.059
1030.71     74.197   -59.107
1045.71     74.129   -61.112
1060.92     74.062   -62.781
1076.35     74.020   -64.660
1092.00     73.922   -66.566
1107.89     73.828   -68.440
1124.00     73.777   -70.435
1140.35     73.654   -72.936
1156.94     73.281   -74.974
1173.77     72.974   -75.263
1190.84     72.873   -74.990
1208.16     72.847   -75.521
1225.73     72.892   -76.041
1243.56     72.980   -77.417
1261.65     72.948   -79.194
1280.00     72.938   -80.564
1298.62     72.890   -82.222
1317.51     72.834   -83.446
1336.67     72.895   -84.613
1356.11     72.928   -86.568
1375.84     72.923   -88.565
1395.85     72.897   -90.764
1416.15     72.752   -93.029
1436.75     72.598   -94.785
1457.65     72.455   -96.312
1478.85     72.336   -97.696
1500.36     72.264   -99.228
1522.19     72.164  -100.632
1544.33     72.055  -101.905
1566.79     72.038  -102.942
1589.58     72.049  -103.926
1612.70     72.121  -105.281
1636.16     72.238  -107.272
1659.95     72.298  -109.579
1684.10     72.283  -112.268
1708.60     72.284  -114.927
1733.45     72.239  -117.489
1758.66     72.181  -119.971
1784.24     72.127  -122.530
1810.19     72.008  -125.068
1836.52     71.862  -127.466
1863.24     71.740  -129.913
1890.34     71.561  -132.299
1917.83     71.456  -134.057
1945.73     71.402  -135.791
1974.03     71.322  -137.593
2002.74     71.269  -138.796
2031.87     71.327  -140.041
2061.43     71.463  -142.583
2091.41     71.519  -146.229
2121.83     71.405  -150.169
2152.69     71.208  -153.581
2184.01     70.993  -156.431
2215.77     70.776  -158.882
2248.00     70.579  -160.972
2280.70     70.410  -162.625
2313.87     70.343  -164.175
2347.53     70.368  -165.891
2381.68     70.423  -167.862
2416.32     70.502  -170.149
2451.46     70.574  -172.488
2487.12     70.602  -174.984
2523.30     70.599  -177.407
2560.00     70.604  -179.690
2597.24     70.636   177.891
2635.01     70.682   175.231
2673.34     70.726   172.361
2712.23     70.789   169.543
2751.68     70.846   166.367
2791.70     70.882   163.046
2832.31     70.902   159.744
2873.50     70.863   156.332
2915.30     70.809   153.208
2957.70     70.768   150.303
3000.72     70.703   147.650
3044.37     70.682   145.289
3088.65     70.687   142.688
3133.58     70.647   140.416
3179.16     70.732   138.473
3225.40     70.881   135.425
3272.31     70.917   132.252
3319.91     70.935   129.467
3368.20     70.957   126.984
3417.19     71.014   124.883
3466.89     71.162   122.701
3517.32     71.352   120.244
3568.48     71.569   117.314
3620.39     71.758   113.725
3673.05     71.855   109.851
3726.47     71.867   105.885
3780.67     71.789   102.171
3835.67     71.679    99.044
3891.46     71.593    96.388
3948.06     71.572    93.967
4005.49     71.620    91.278
4063.75     71.665    88.113
4122.86     71.649    84.627
4182.82     71.549    81.140
4243.66     71.372    78.048
4305.39     71.166    75.612
4368.01     70.996    73.728
4431.55     70.902    72.110
4496.01     70.876    70.429
4561.40     70.907    68.490
4627.75     70.940    66.068
4695.06     70.936    63.307
4763.35     70.873    60.320
4832.64     70.737    57.315
4902.93     70.543    54.487
4974.24     70.302    51.956
5046.60     70.016    49.953
5120.00     69.723    48.646
5194.47     69.470    48.014
5270.03     69.288    47.766
5346.68     69.165    47.535
5424.45     69.098    47.295
5503.35     69.084    47.001
5583.40     69.116    46.449
5664.61     69.170    45.649
5747.01     69.224    44.643
5830.60     69.283    43.485
5915.41     69.354    42.235
6001.45     69.427    40.651
6088.74     69.465    38.639
6177.30     69.425    36.400
6267.15     69.295    34.242
6358.31     69.097    32.696
6450.80     68.896    32.049
6544.62     68.760    31.979
6639.82     68.707    32.024
6736.40     68.692    31.945
6834.38     68.687    31.838
6933.79     68.707    31.687
7034.64     68.744    31.396
7136.96     68.807    31.127
7240.77     68.939    30.683
7346.09     69.098    29.697
7452.94     69.233    28.421
7561.35     69.375    26.958
7671.33     69.499    24.923
7782.91     69.533    22.506
7896.12     69.494    20.281
8010.97     69.428    18.174
8127.49     69.306    16.176
8245.71     69.137    14.877
8365.65     69.028    14.154
8487.33     68.989    13.284
8610.78     68.952    12.335
8736.03     68.946    11.437
8863.09     68.978    10.076
8992.01     68.972     8.209
9122.80     68.915     6.275
9255.50     68.835     4.235
9390.12     68.704     2.032
9526.70     68.499     0.046
9665.27     68.238    -1.441
9805.86     67.961    -2.273
9948.49     67.744    -2.410
10093.2     67.650    -2.420
10240.0     67.636    -2.829
10388.9     67.656    -3.667
10540.1     67.675    -5.098
10693.4     67.623    -6.993
10848.9     67.486    -8.930
11006.7     67.269   -10.756
11166.8     66.980   -12.231
11329.2     66.664   -13.190
11494.0     66.357   -13.613
11661.2     66.089   -13.578
11830.8     65.870   -13.318
12002.9     65.700   -12.918
12177.5     65.579   -12.627
12354.6     65.460   -12.566
12534.3     65.339   -12.640
12716.6     65.219   -12.946
12901.6     65.084   -13.300
13089.2     64.968   -13.670
13279.6     64.870   -14.246
13472.8     64.772   -14.972
13668.8     64.662   -16.015
13867.6     64.497   -17.417
14069.3     64.266   -18.982
14273.9     63.960   -20.588
14481.5     63.572   -21.925
14692.2     63.125   -22.779
14905.9     62.630   -23.061
15122.7     62.119   -22.652
15342.7     61.625   -21.594
15565.8     61.182   -19.984
15792.2     60.832   -18.090
16021.9     60.589   -16.246
16255.0     60.446   -14.608
16491.4     60.367   -13.358
16731.3     60.318   -12.467
16974.7     60.272   -11.636
17221.6     60.201   -10.792
17472.1     60.114    -9.988
17726.2     60.021    -9.209
17984.0     59.920    -8.501
18245.6     59.809    -7.847
18511.0     59.706    -7.118
18780.2     59.616    -6.266
19053.4     59.545    -5.512
19330.5     59.510    -5.045
19611.7     59.495    -4.909
19897.0     59.468    -5.264
20186.4     59.414    -6.002
20480.0     59.319    -6.723
20777.9     59.179    -7.230
21080.1     59.043    -7.340
21386.7     58.945    -6.918
21697.8     58.871    -6.238
22013.4     58.820    -5.646
22333.6     58.786    -5.439
22658.4     58.740    -5.881
22988.0     58.667    -6.807
23322.4     58.543    -7.847
23661.6     58.352    -8.796
24005.8     58.093    -9.420
24355.0     57.761    -9.493
24709.2     57.377    -8.985
25068.6     57.001    -7.878
25433.2     56.674    -6.226
25803.2     56.402    -4.335
26178.5     56.186    -2.542
26559.3     56.007    -1.031
26945.6     55.805     0.280
27337.5     55.546     1.886
27735.2     55.278     4.274
28138.6     55.081     7.492
28547.9     55.043    11.215
28963.1     55.234    14.806
29384.4     55.623    17.469
29811.8     56.109    18.699
30245.4     56.576    18.455
30685.3     56.954    17.045
31131.7     57.231    14.991
31584.5     57.429    12.716
32043.9     57.580    10.423
32510.0     57.695     8.191
32982.8     57.766     5.916
33462.6     57.783     3.541
33949.3     57.723     1.321
34443.1     57.615    -0.467
34944.1     57.526    -1.801
35452.4     57.530    -2.931
35968.0     57.688    -4.481
36491.2     57.957    -7.241
37022.0     58.206   -11.620
37560.5     58.328   -17.525
38106.8     58.284   -24.141
38661.1     58.081   -30.946
39223.4     57.797   -37.200
