Freq[Hz]     dBSPL  Phase[Deg]
Freq[Hz]     dBSPL  Phase[Deg]
5.00000     -7.864   -18.273
5.07273     -7.521   -18.368
5.14651     -7.152   -18.467
5.22137     -6.742   -18.572
5.29732     -6.315   -18.680
5.37437     -5.871   -18.792
5.45254     -5.426   -18.905
5.53185     -4.981   -19.020
5.61231     -4.537   -19.136
5.69394     -4.092   -19.254
5.77676     -3.648   -19.374
5.86079     -3.203   -19.496
5.94604     -2.758   -19.620
6.03252     -2.314   -19.745
6.12027     -1.869   -19.872
6.20929     -1.425   -20.001
6.29961     -0.980   -20.132
6.39124     -0.535   -20.265
6.48420     -0.091   -20.400
6.57851      0.354   -20.536
6.67420      0.799   -20.675
6.77128      1.243   -20.816
6.86977      1.688   -20.959
6.96969      2.133   -21.103
7.07107      2.578   -21.250
7.17392      3.022   -21.400
7.27827      3.467   -21.551
7.38413      3.912   -21.704
7.49154      4.356   -21.860
7.60050      4.801   -22.018
7.71105      5.246   -22.179
7.82321      5.691   -22.341
7.93701      6.136   -22.506
8.05245      6.580   -22.674
8.16958      7.025   -22.844
8.28841      7.470   -23.017
8.40896      7.915   -23.192
8.53128      8.360   -23.369
8.65537      8.805   -23.549
8.78126      9.250   -23.732
8.90899      9.695   -23.918
9.03857     10.139   -24.106
9.17004     10.584   -24.297
9.30342     11.029   -24.491
9.43874     11.474   -24.687
9.57603     11.919   -24.887
9.71532     12.364   -25.090
9.85663     12.809   -25.295
10.0000     13.254   -25.504
10.1455     13.700   -25.715
10.2930     14.145   -25.930
10.4427     14.590   -26.148
10.5946     15.035   -26.369
10.7487     15.480   -26.593
10.9051     15.925   -26.821
11.0637     16.371   -27.052
11.2246     16.816   -27.287
11.3879     17.261   -27.524
11.5535     17.707   -27.766
11.7216     18.152   -28.011
11.8921     18.597   -28.260
12.0650     19.043   -28.512
12.2405     19.488   -28.768
12.4186     19.934   -29.028
12.5992     20.379   -29.292
12.7825     20.825   -29.560
12.9684     21.270   -29.832
13.1570     21.716   -30.108
13.3484     22.162   -30.387
13.5426     22.607   -30.672
13.7395     23.053   -30.960
13.9394     23.499   -31.253
14.1421     23.945   -31.550
14.3478     24.391   -31.852
14.5565     24.837   -32.158
14.7683     25.283   -32.468
14.9831     25.729   -32.784
15.2010     26.175   -33.104
15.4221     26.621   -33.429
15.6464     27.067   -33.759
15.8740     27.514   -34.094
16.1049     27.960   -34.434
16.3392     28.407   -34.780
16.5768     28.853   -35.130
16.8179     29.300   -35.486
17.0626     29.747   -35.848
17.3107     30.193   -36.214
17.5625     30.640   -36.587
17.8180     31.087   -36.965
18.0771     31.534   -37.350
18.3401     31.981   -37.740
18.6068     32.428   -38.136
18.8775     32.876   -38.539
19.1521     33.323   -38.947
19.4306     33.771   -39.362
19.7133     34.225   -39.773
20.0000     34.695   -40.165
20.2909     35.194   -40.563
20.5860     35.728   -41.035
20.8855     36.270   -41.756
21.1893     36.793   -42.787
21.4975     37.270   -43.934
21.8102     37.676   -44.953
22.1274     38.032   -45.646
22.4492     38.388   -45.910
22.7758     38.780   -45.827
23.1071     39.224   -45.673
23.4432     39.721   -45.711
23.7841     40.240   -46.023
24.1301     40.749   -46.587
24.4811     41.236   -47.340
24.8372     41.701   -48.217
25.1984     42.155   -49.145
25.5649     42.613   -50.040
25.9368     43.082   -50.904
26.3141     43.569   -51.752
26.6968     44.063   -52.642
27.0851     44.553   -53.626
27.4791     45.032   -54.670
27.8788     45.492   -55.749
28.2843     45.938   -56.839
28.6957     46.380   -57.884
29.1131     46.826   -58.882
29.5365     47.285   -59.872
29.9661     47.760   -60.870
30.4020     48.246   -61.924
30.8442     48.733   -63.054
31.2929     49.210   -64.244
31.7480     49.678   -65.485
32.2098     50.140   -66.748
32.6783     50.599   -67.988
33.1536     51.071   -69.249
33.6359     51.560   -70.591
34.1251     52.059   -71.947
34.6215     52.544   -73.435
35.1250     53.000   -74.985
35.6359     53.437   -76.339
36.1543     53.866   -77.622
36.6802     54.304   -78.929
37.2137     54.772   -80.227
37.7550     55.266   -81.653
38.3041     55.769   -83.250
38.8613     56.259   -84.937
39.4265     56.735   -86.585
40.0000     57.200   -88.179
40.5818     57.664   -89.780
41.1721     58.131   -91.432
41.7710     58.603   -93.144
42.3785     59.074   -94.922
42.9949     59.544   -96.760
43.6203     60.017   -98.605
44.2548     60.486  -100.479
44.8985     60.954  -102.386
45.5515     61.425  -104.304
46.2141     61.894  -106.279
46.8863     62.357  -108.309
47.5683     62.813  -110.353
48.2602     63.265  -112.439
48.9621     63.718  -114.584
49.6743     64.171  -116.779
50.3968     64.625  -119.058
51.1299     65.081  -121.408
51.8736     65.531  -123.797
52.6281     65.973  -126.200
53.3936     66.410  -128.595
54.1702     66.841  -131.042
54.9581     67.266  -133.589
55.7575     67.684  -136.207
56.5685     68.094  -138.918
57.3914     68.495  -141.685
58.2261     68.888  -144.447
59.0730     69.272  -147.224
59.9323     69.650  -150.038
60.8040     70.023  -152.890
61.6884     70.387  -155.802
62.5857     70.742  -158.748
63.4960     71.085  -161.748
64.4196     71.409  -164.801
65.3566     71.716  -167.873
66.3073     72.009  -170.970
67.2717     72.293  -174.059
68.2502     72.571  -177.116
69.2429     72.843   179.818
70.2501     73.106   176.729
71.2719     73.353   173.596
72.3086     73.580   170.424
73.3603     73.787   167.259
74.4274     73.979   164.131
75.5099     74.161   161.062
76.6083     74.335   158.049
77.7226     74.502   155.067
78.8531     74.658   152.107
80.0000     74.798   149.172
81.1636     74.924   146.254
82.3442     75.040   143.380
83.5419     75.147   140.559
84.7570     75.245   137.767
85.9899     75.338   135.023
87.2406     75.421   132.345
88.5096     75.495   129.716
89.7970     75.561   127.138
91.1031     75.622   124.624
92.4282     75.678   122.160
93.7726     75.732   119.735
95.1366     75.779   117.350
96.5204     75.821   115.001
97.9243     75.857   112.692
99.3486     75.887   110.427
100.794     75.908   108.207
102.260     75.927   106.044
103.747     75.939   103.943
105.256     75.947   101.906
106.787     75.956    99.931
108.340     75.967    97.990
109.916     75.978    96.092
111.515     75.989    94.218
113.137     75.999    92.380
114.783     76.005    90.570
116.452     76.008    88.777
118.146     76.009    86.993
119.865     76.003    85.249
121.608     75.992    83.520
123.377     75.975    81.860
125.171     75.953    80.291
126.992     75.934    78.794
128.839     75.920    77.341
130.713     75.912    75.940
132.615     75.910    74.522
134.543     75.908    73.129
136.500     75.907    71.743
138.486     75.905    70.346
140.500     75.899    68.979
142.544     75.892    67.620
144.617     75.884    66.274
146.721     75.875    64.957
148.855     75.865    63.642
151.020     75.854    62.359
153.217     75.839    61.095
155.445     75.822    59.879
157.706     75.809    58.701
160.000     75.796    57.532
162.327     75.784    56.419
164.688     75.776    55.327
167.084     75.769    54.241
169.514     75.767    53.192
171.980     75.772    52.131
174.481     75.781    51.025
177.019     75.786    49.878
179.594     75.786    48.726
182.206     75.780    47.576
184.856     75.769    46.447
187.545     75.754    45.351
190.273     75.737    44.286
193.041     75.721    43.254
195.849     75.706    42.250
198.697     75.690    41.275
201.587     75.681    40.306
204.520     75.668    39.296
207.494     75.643    38.308
210.512     75.613    37.402
213.574     75.583    36.628
216.681     75.571    35.955
219.833     75.589    35.251
223.030     75.619    34.397
226.274     75.643    33.333
229.565     75.642    32.154
232.905     75.605    31.019
236.292     75.551    30.064
239.729     75.499    29.321
243.216     75.466    28.714
246.754     75.454    28.109
250.343     75.448    27.465
253.984     75.447    26.810
257.678     75.456    26.141
261.426     75.469    25.419
265.229     75.487    24.627
269.087     75.497    23.747
273.001     75.494    22.794
276.972     75.459    21.869
281.000     75.413    21.148
285.088     75.380    20.609
289.234     75.374    20.148
293.441     75.397    19.629
297.709     75.435    18.956
302.040     75.466    18.108
306.433     75.483    17.191
310.890     75.476    16.217
315.412     75.444    15.335
320.000     75.410    14.647
324.655     75.385    13.993
329.377     75.360    13.414
334.168     75.359    12.913
339.028     75.371    12.280
343.959     75.372    11.624
348.962     75.379    10.975
354.038     75.387    10.286
359.188     75.378     9.563
364.412     75.374     8.982
369.713     75.388     8.346
375.090     75.394     7.620
380.546     75.400     6.976
386.081     75.416     6.243
391.697     75.422     5.518
397.394     75.426     4.737
403.175     75.404     3.916
409.039     75.372     3.403
414.989     75.372     2.939
421.025     75.401     2.478
427.149     75.443     1.913
433.362     75.502     1.149
439.665     75.529     0.132
446.060     75.509    -0.910
452.548     75.481    -1.642
459.131     75.466    -2.283
465.809     75.470    -2.904
472.584     75.515    -3.578
479.458     75.551    -4.714
486.432     75.520    -6.043
493.507     75.416    -7.034
500.686     75.321    -7.513
507.968     75.269    -7.747
515.357     75.250    -7.935
522.853     75.264    -8.018
530.458     75.341    -8.347
538.174     75.406    -9.021
546.002     75.477    -9.877
553.943     75.523   -11.057
562.001     75.520   -12.299
570.175     75.481   -13.413
578.469     75.393   -14.318
586.883     75.309   -14.736
595.419     75.285   -14.898
604.080     75.282   -15.221
612.866     75.323   -15.852
621.780     75.324   -16.547
630.824     75.321   -17.138
640.000     75.333   -17.713
649.309     75.350   -18.056
658.753     75.432   -18.629
668.335     75.505   -19.677
678.056     75.542   -20.936
687.919     75.541   -22.285
697.925     75.471   -23.314
708.077     75.425   -23.863
718.376     75.440   -24.404
728.825     75.433   -25.113
739.426     75.439   -25.724
750.181     75.475   -26.381
761.093     75.494   -27.258
772.163     75.509   -27.910
783.394     75.571   -28.617
794.789     75.634   -29.714
806.349     75.673   -30.900
818.078     75.714   -32.238
829.977     75.696   -33.766
842.050     75.647   -34.979
854.298     75.621   -35.982
866.724     75.599   -37.000
879.330     75.573   -37.960
892.120     75.586   -38.912
905.097     75.602   -40.075
918.262     75.586   -41.385
931.618     75.548   -42.638
945.169     75.525   -43.785
958.917     75.484   -44.882
972.864     75.480   -45.989
987.015     75.487   -47.362
1001.37     75.452   -48.754
1015.94     75.425   -50.143
1030.71     75.397   -51.684
1045.71     75.308   -52.992
1060.92     75.248   -54.095
1076.35     75.201   -55.338
1092.00     75.103   -56.682
1107.89     74.998   -57.863
1124.00     74.925   -58.829
1140.35     74.863   -60.383
1156.94     74.628   -61.227
1173.77     74.530   -60.811
1190.84     74.611   -60.745
1208.16     74.705   -61.288
1225.73     74.846   -62.517
1243.56     74.921   -64.469
1261.65     74.863   -66.188
1280.00     74.827   -67.671
1298.62     74.780   -68.828
1317.51     74.767   -69.849
1336.67     74.818   -71.148
1356.11     74.816   -72.764
1375.84     74.803   -74.265
1395.85     74.755   -76.012
1416.15     74.625   -77.401
1436.75     74.564   -78.284
1457.65     74.522   -79.402
1478.85     74.505   -80.264
1500.36     74.552   -81.110
1522.19     74.613   -82.517
1544.33     74.705   -83.679
1566.79     74.815   -85.284
1589.58     74.921   -87.201
1612.70     75.026   -89.232
1636.16     75.084   -91.786
1659.95     75.132   -94.232
1684.10     75.114   -96.885
1708.60     75.088   -99.442
1733.45     75.071  -101.699
1758.66     75.043  -103.994
1784.24     75.038  -106.093
1810.19     75.036  -108.283
1836.52     75.022  -110.629
1863.24     75.009  -112.996
1890.34     74.979  -115.870
1917.83     74.958  -119.063
1945.73     74.925  -122.451
1974.03     74.787  -126.181
2002.74     74.539  -129.240
2031.87     74.356  -131.264
2061.43     74.235  -133.617
2091.41     74.061  -136.211
2121.83     73.888  -138.335
2152.69     73.727  -140.275
2184.01     73.639  -141.895
2215.77     73.640  -143.708
2248.00     73.645  -146.027
2280.70     73.665  -148.632
2313.87     73.702  -151.585
2347.53     73.679  -154.776
2381.68     73.619  -157.705
2416.32     73.513  -160.407
2451.46     73.404  -162.529
2487.12     73.350  -164.313
2523.30     73.382  -166.171
2560.00     73.490  -168.411
2597.24     73.623  -171.142
2635.01     73.714  -174.371
2673.34     73.736  -177.901
2712.23     73.664   178.606
2751.68     73.547   175.483
2791.70     73.445   172.823
2832.31     73.416   170.625
2873.50     73.494   168.572
2915.30     73.669   166.200
2957.70     73.885   163.378
3000.72     74.081   160.003
3044.37     74.190   156.137
3088.65     74.193   152.282
3133.58     74.117   148.994
3179.16     74.132   146.427
3225.40     74.215   143.327
3272.31     74.242   140.248
3319.91     74.281   137.407
3368.20     74.349   134.603
3417.19     74.433   131.676
3466.89     74.514   128.533
3517.32     74.575   125.274
3568.48     74.606   122.066
3620.39     74.620   119.094
3673.05     74.649   116.339
3726.47     74.710   113.622
3780.67     74.786   110.779
3835.67     74.862   107.783
3891.46     74.917   104.675
3948.06     74.960   101.607
4005.49     75.009    98.585
4063.75     75.070    95.466
4122.86     75.115    92.092
4182.82     75.103    88.574
4243.66     75.007    85.253
4305.39     74.862    82.475
4368.01     74.725    80.306
4431.55     74.639    78.545
4496.01     74.623    76.850
4561.40     74.650    75.015
4627.75     74.681    73.090
4695.06     74.723    71.253
4763.35     74.783    69.470
4832.64     74.869    67.653
4902.93     74.979    65.721
4974.24     75.099    63.546
5046.60     75.217    61.065
5120.00     75.315    58.327
5194.47     75.371    55.505
5270.03     75.395    52.779
5346.68     75.406    50.194
5424.45     75.414    47.649
5503.35     75.421    45.043
5583.40     75.420    42.315
5664.61     75.391    39.491
5747.01     75.321    36.742
5830.60     75.221    34.253
5915.41     75.117    32.033
6001.45     75.026    29.895
6088.74     74.928    27.690
6177.30     74.792    25.488
6267.15     74.604    23.501
6358.31     74.384    21.944
6450.80     74.174    20.899
6544.62     74.017    20.247
6639.82     73.931    19.721
6736.40     73.899    19.155
6834.38     73.915    18.559
6933.79     73.987    17.812
7034.64     74.090    16.759
7136.96     74.197    15.473
7240.77     74.307    13.986
7346.09     74.405    12.261
7452.94     74.475    10.411
7561.35     74.532     8.468
7671.33     74.573     6.396
7782.91     74.589     4.284
7896.12     74.593     2.162
8010.97     74.572     0.022
8127.49     74.519    -2.070
8245.71     74.447    -4.127
8365.65     74.342    -6.169
8487.33     74.195    -8.052
8610.78     74.042    -9.666
8736.03     73.911   -11.123
8863.09     73.793   -12.581
8992.01     73.681   -14.083
9122.80     73.575   -15.653
9255.50     73.459   -17.335
9390.12     73.309   -19.044
9526.70     73.117   -20.585
9665.27     72.895   -21.697
9805.86     72.694   -22.274
9948.49     72.556   -22.504
10093.2     72.499   -22.625
10240.0     72.517   -22.938
10388.9     72.572   -23.599
10540.1     72.644   -24.530
10693.4     72.726   -25.765
10848.9     72.800   -27.336
11006.7     72.842   -29.231
11166.8     72.826   -31.310
11329.2     72.757   -33.375
11494.0     72.645   -35.347
11661.2     72.502   -37.098
11830.8     72.362   -38.622
12002.9     72.231   -40.041
12177.5     72.107   -41.336
12354.6     72.002   -42.554
12534.3     71.907   -43.811
12716.6     71.816   -45.093
12901.6     71.732   -46.485
13089.2     71.635   -48.046
13279.6     71.514   -49.661
13472.8     71.372   -51.306
13668.8     71.203   -52.877
13867.6     71.029   -54.312
14069.3     70.860   -55.684
14273.9     70.700   -57.010
14481.5     70.553   -58.376
14692.2     70.406   -59.815
14905.9     70.260   -61.293
15122.7     70.107   -62.804
15342.7     69.955   -64.316
15565.8     69.817   -65.807
15792.2     69.690   -67.302
16021.9     69.583   -68.849
16255.0     69.492   -70.481
16491.4     69.409   -72.298
16731.3     69.327   -74.381
16974.7     69.215   -76.750
17221.6     69.044   -79.421
17472.1     68.781   -82.252
17726.2     68.394   -85.003
17984.0     67.869   -87.380
18245.6     67.220   -88.983
18511.0     66.489   -89.486
18780.2     65.758   -88.767
19053.4     65.112   -86.910
19330.5     64.625   -84.296
19611.7     64.350   -81.468
19897.0     64.276   -78.915
20186.4     64.347   -76.967
20480.0     64.499   -75.696
20777.9     64.678   -75.009
21080.1     64.855   -74.715
21386.7     65.016   -74.630
21697.8     65.160   -74.702
22013.4     65.310   -74.868
22333.6     65.477   -75.164
22658.4     65.667   -75.771
22988.0     65.863   -76.808
23322.4     66.041   -78.308
23661.6     66.187   -80.218
24005.8     66.294   -82.422
24355.0     66.348   -84.826
24709.2     66.344   -87.317
25068.6     66.274   -89.759
25433.2     66.137   -92.015
25803.2     65.950   -93.967
26178.5     65.753   -95.635
26559.3     65.581   -97.176
26945.6     65.447   -98.802
27337.5     65.325  -100.708
27735.2     65.151  -102.818
28138.6     64.879  -104.724
28547.9     64.511  -105.975
28963.1     64.100  -106.301
29384.4     63.735  -105.715
29811.8     63.505  -104.546
30245.4     63.442  -103.304
30685.3     63.511  -102.408
31131.7     63.661  -101.978
31584.5     63.866  -101.918
32043.9     64.127  -102.178
32510.0     64.445  -102.806
32982.8     64.815  -103.846
33462.6     65.228  -105.428
33949.3     65.655  -107.687
34443.1     66.071  -110.558
34944.1     66.477  -113.965
35452.4     66.877  -117.944
35968.0     67.261  -122.523
36491.2     67.610  -127.745
37022.0     67.893  -133.662
37560.5     68.065  -140.167
38106.8     68.118  -146.780
38661.1     68.053  -153.301
39223.4     67.913  -159.266
