Freq[Hz]     dBSPL  Phase[Deg]
Freq[Hz]     dBSPL  Phase[Deg]
5.00000     -8.201   -16.938
5.07273     -7.859   -17.038
5.14651     -7.490   -17.144
5.22137     -7.081   -17.258
5.29732     -6.656   -17.376
5.37437     -6.212   -17.499
5.45254     -5.769   -17.624
5.53185     -5.326   -17.751
5.61231     -4.882   -17.879
5.69394     -4.439   -18.010
5.77676     -3.995   -18.142
5.86079     -3.552   -18.276
5.94604     -3.108   -18.412
6.03252     -2.665   -18.550
6.12027     -2.221   -18.691
6.20929     -1.778   -18.833
6.29961     -1.335   -18.977
6.39124     -0.891   -19.124
6.48420     -0.448   -19.272
6.57851     -0.004   -19.423
6.67420      0.440   -19.576
6.77128      0.883   -19.731
6.86977      1.327   -19.888
6.96969      1.770   -20.048
7.07107      2.214   -20.210
7.17392      2.657   -20.375
7.27827      3.101   -20.541
7.38413      3.544   -20.711
7.49154      3.988   -20.882
7.60050      4.432   -21.057
7.71105      4.875   -21.234
7.82321      5.319   -21.413
7.93701      5.762   -21.595
8.05245      6.206   -21.780
8.16958      6.650   -21.967
8.28841      7.094   -22.157
8.40896      7.537   -22.350
8.53128      7.981   -22.546
8.65537      8.425   -22.745
8.78126      8.868   -22.946
8.90899      9.312   -23.151
9.03857      9.756   -23.358
9.17004     10.200   -23.569
9.30342     10.644   -23.782
9.43874     11.087   -23.999
9.57603     11.531   -24.219
9.71532     11.975   -24.443
9.85663     12.419   -24.669
10.0000     12.863   -24.899
10.1455     13.307   -25.132
10.2930     13.751   -25.369
10.4427     14.195   -25.609
10.5946     14.639   -25.853
10.7487     15.083   -26.100
10.9051     15.527   -26.351
11.0637     15.971   -26.606
11.2246     16.415   -26.864
11.3879     16.859   -27.126
11.5535     17.303   -27.393
11.7216     17.748   -27.663
11.8921     18.192   -27.937
12.0650     18.636   -28.215
12.2405     19.080   -28.497
12.4186     19.525   -28.784
12.5992     19.969   -29.074
12.7825     20.414   -29.369
12.9684     20.858   -29.669
13.1570     21.302   -29.973
13.3484     21.747   -30.281
13.5426     22.192   -30.594
13.7395     22.636   -30.912
13.9394     23.081   -31.235
14.1421     23.526   -31.562
14.3478     23.970   -31.894
14.5565     24.415   -32.231
14.7683     24.860   -32.574
14.9831     25.305   -32.921
15.2010     25.750   -33.274
15.4221     26.195   -33.632
15.6464     26.640   -33.995
15.8740     27.085   -34.364
16.1049     27.531   -34.739
16.3392     27.976   -35.119
16.5768     28.421   -35.505
16.8179     28.867   -35.896
17.0626     29.312   -36.294
17.3107     29.758   -36.698
17.5625     30.204   -37.108
17.8180     30.649   -37.525
18.0771     31.095   -37.947
18.3401     31.541   -38.377
18.6068     31.987   -38.813
18.8775     32.433   -39.255
19.1521     32.880   -39.705
19.4306     33.326   -40.162
19.7133     33.780   -40.614
20.0000     34.249   -41.049
20.2909     34.751   -41.492
20.5860     35.290   -42.011
20.8855     35.839   -42.784
21.1893     36.371   -43.876
21.4975     36.855   -45.097
21.8102     37.264   -46.203
22.1274     37.617   -46.984
22.4492     37.966   -47.316
22.7758     38.350   -47.268
23.1071     38.788   -47.119
23.4432     39.282   -47.143
23.7841     39.801   -47.446
24.1301     40.311   -48.036
24.4811     40.799   -48.845
24.8372     41.263   -49.794
25.1984     41.717   -50.794
25.5649     42.173   -51.740
25.9368     42.642   -52.635
26.3141     43.129   -53.498
26.6968     43.626   -54.401
27.0851     44.119   -55.410
27.4791     44.601   -56.496
27.8788     45.062   -57.633
28.2843     45.507   -58.794
28.6957     45.946   -59.910
29.1131     46.389   -60.973
29.5365     46.846   -62.016
29.9661     47.319   -63.057
30.4020     47.804   -64.148
30.8442     48.291   -65.316
31.2929     48.767   -66.551
31.7480     49.233   -67.841
32.2098     49.694   -69.158
32.6783     50.150   -70.455
33.1536     50.621   -71.759
33.6359     51.112   -73.126
34.1251     51.615   -74.490
34.6215     52.108   -76.006
35.1250     52.573   -77.628
35.6359     53.013   -79.085
36.1543     53.438   -80.510
36.6802     53.870   -81.972
37.2137     54.328   -83.381
37.7550     54.812   -84.875
38.3041     55.309   -86.509
38.8613     55.796   -88.221
39.4265     56.268   -89.892
40.0000     56.730   -91.517
40.5818     57.190   -93.157
41.1721     57.657   -94.849
41.7710     58.128   -96.604
42.3785     58.600   -98.435
42.9949     59.071  -100.336
43.6203     59.543  -102.246
44.2548     60.011  -104.189
44.8985     60.478  -106.162
45.5515     60.947  -108.136
46.2141     61.415  -110.166
46.8863     61.880  -112.257
47.5683     62.335  -114.370
48.2602     62.786  -116.528
48.9621     63.238  -118.745
49.6743     63.688  -121.007
50.3968     64.140  -123.347
51.1299     64.596  -125.755
51.8736     65.047  -128.204
52.6281     65.490  -130.671
53.3936     65.928  -133.132
54.1702     66.361  -135.654
54.9581     66.788  -138.289
55.7575     67.207  -141.000
56.5685     67.617  -143.809
57.3914     68.017  -146.676
58.2261     68.406  -149.529
59.0730     68.787  -152.391
59.9323     69.163  -155.285
60.8040     69.535  -158.211
61.6884     69.900  -161.200
62.5857     70.256  -164.223
63.4960     70.599  -167.315
64.4196     70.924  -170.479
65.3566     71.230  -173.672
66.3073     71.521  -176.896
67.2717     71.799   179.899
68.2502     72.070   176.739
69.2429     72.335   173.590
70.2501     72.592   170.443
71.2719     72.836   167.260
72.3086     73.065   164.036
73.3603     73.275   160.805
74.4274     73.471   157.595
75.5099     73.657   154.430
76.6083     73.833   151.306
77.7226     74.001   148.208
78.8531     74.157   145.126
80.0000     74.294   142.063
81.1636     74.416   139.018
82.3442     74.526   136.037
83.5419     74.628   133.137
84.7570     74.727   130.273
85.9899     74.824   127.455
87.2406     74.914   124.687
88.5096     74.995   121.931
89.7970     75.069   119.202
91.1031     75.133   116.532
92.4282     75.189   113.904
93.7726     75.241   111.316
95.1366     75.287   108.776
96.5204     75.326   106.274
97.9243     75.361   103.817
99.3486     75.388   101.403
100.794     75.409    99.026
102.260     75.427    96.706
103.747     75.438    94.430
105.256     75.444    92.207
106.787     75.449    90.053
108.340     75.453    87.944
109.916     75.457    85.886
111.515     75.461    83.866
113.137     75.462    81.892
114.783     75.460    79.942
116.452     75.457    78.026
118.146     75.454    76.150
119.865     75.450    74.306
121.608     75.446    72.469
123.377     75.440    70.677
125.171     75.429    68.912
126.992     75.418    67.190
128.839     75.408    65.509
130.713     75.401    63.877
132.615     75.402    62.245
134.543     75.401    60.620
136.500     75.402    58.981
138.486     75.399    57.323
140.500     75.386    55.676
142.544     75.373    54.055
144.617     75.356    52.466
146.721     75.339    50.920
148.855     75.325    49.391
151.020     75.312    47.872
153.217     75.296    46.342
155.445     75.276    44.836
157.706     75.257    43.352
160.000     75.235    41.878
162.327     75.210    40.468
164.688     75.188    39.087
167.084     75.168    37.715
169.514     75.150    36.360
171.980     75.133    34.999
174.481     75.115    33.625
177.019     75.092    32.264
179.594     75.064    30.980
182.206     75.041    29.760
184.856     75.030    28.575
187.545     75.031    27.373
190.273     75.039    26.098
193.041     75.047    24.761
195.849     75.049    23.380
198.697     75.046    21.996
201.587     75.045    20.614
204.520     75.043    19.146
207.494     75.027    17.616
210.512     74.994    16.079
213.574     74.939    14.599
216.681     74.875    13.258
219.833     74.813    12.014
223.030     74.754    10.869
226.274     74.711     9.789
229.565     74.680     8.689
232.905     74.650     7.579
236.292     74.629     6.507
239.729     74.618     5.376
243.216     74.606     4.168
246.754     74.589     2.885
250.343     74.555     1.573
253.984     74.509     0.322
257.678     74.461    -0.833
261.426     74.419    -1.930
265.229     74.395    -3.001
269.087     74.381    -4.227
273.001     74.354    -5.529
276.972     74.314    -6.886
281.000     74.250    -8.189
285.088     74.179    -9.281
289.234     74.125   -10.266
293.441     74.088   -11.222
297.709     74.068   -12.201
302.040     74.054   -13.341
306.433     74.028   -14.479
310.890     74.007   -15.633
315.412     73.987   -16.899
320.000     73.961   -18.169
324.655     73.929   -19.554
329.377     73.877   -20.975
334.168     73.812   -22.271
339.028     73.751   -23.513
343.959     73.695   -24.763
348.962     73.646   -26.049
354.038     73.579   -27.451
359.188     73.486   -28.815
364.412     73.379   -29.968
369.713     73.288   -31.008
375.090     73.212   -31.984
380.546     73.152   -32.989
386.081     73.111   -34.090
391.697     73.047   -35.301
397.394     72.983   -36.538
403.175     72.920   -37.832
409.039     72.819   -39.236
414.989     72.691   -40.582
421.025     72.531   -41.582
427.149     72.376   -42.312
433.362     72.262   -42.703
439.665     72.215   -43.086
446.060     72.217   -43.817
452.548     72.209   -44.806
459.131     72.174   -45.821
465.809     72.167   -46.772
472.584     72.178   -47.957
479.458     72.184   -49.276
486.432     72.209   -50.897
493.507     72.166   -53.061
500.686     72.027   -55.102
507.968     71.875   -56.813
515.357     71.666   -58.495
522.853     71.443   -59.738
530.458     71.245   -60.302
538.174     71.120   -60.870
546.002     71.048   -61.389
553.943     71.064   -61.919
562.001     71.123   -63.428
570.175     71.124   -65.806
578.469     70.971   -68.693
586.883     70.633   -71.267
595.419     70.220   -72.864
604.080     69.811   -73.403
612.866     69.501   -72.743
621.780     69.446   -72.487
630.824     69.405   -73.085
640.000     69.307   -73.913
649.309     69.175   -75.249
658.753     68.942   -75.996
668.335     68.761   -75.928
678.056     68.719   -76.053
687.919     68.742   -76.817
697.925     68.725   -78.349
708.077     68.654   -80.518
718.376     68.441   -82.770
728.825     68.139   -84.532
739.426     67.812   -85.958
750.181     67.407   -86.906
761.093     67.027   -87.046
772.163     66.710   -87.101
783.394     66.359   -86.597
794.789     66.129   -85.439
806.349     66.044   -84.450
818.078     66.003   -83.201
829.977     66.137   -82.260
842.050     66.379   -82.760
854.298     66.441   -84.146
866.724     66.432   -85.689
879.330     66.464   -87.870
892.120     66.193   -90.199
905.097     65.855   -91.322
918.262     65.563   -91.382
931.618     65.314   -90.375
945.169     65.212   -89.011
958.917     65.240   -88.110
972.864     65.357   -87.365
987.015     65.486   -87.357
1001.37     65.614   -87.573
1015.94     65.782   -87.736
1030.71     65.928   -88.320
1045.71     66.136   -89.409
1060.92     66.223   -91.375
1076.35     66.307   -93.093
1092.00     66.279   -94.619
1107.89     66.241   -95.667
1124.00     66.348   -96.435
1140.35     66.366   -98.178
1156.94     66.331  -100.452
1173.77     66.216  -102.318
1190.84     66.054  -103.126
1208.16     66.175  -104.039
1225.73     66.065  -105.991
1243.56     66.021  -106.506
1261.65     66.178  -107.778
1280.00     66.202  -109.497
1298.62     66.364  -111.526
1317.51     66.370  -114.907
1336.67     66.171  -117.115
1356.11     66.076  -118.690
1375.84     65.846  -120.681
1395.85     65.697  -120.687
1416.15     65.771  -121.245
1436.75     65.756  -123.060
1457.65     65.772  -123.873
1478.85     65.831  -124.925
1500.36     66.011  -125.868
1522.19     66.274  -126.489
1544.33     66.616  -128.585
1566.79     66.937  -131.455
1589.58     67.138  -135.050
1612.70     67.224  -139.308
1636.16     67.273  -142.919
1659.95     67.305  -146.387
1684.10     67.400  -149.515
1708.60     67.478  -153.226
1733.45     67.501  -157.548
1758.66     67.385  -161.190
1784.24     67.266  -164.742
1810.19     67.158  -167.631
1836.52     67.152  -169.951
1863.24     67.377  -173.343
1890.34     67.609  -177.402
1917.83     67.728   177.701
1945.73     67.776   171.859
1974.03     67.576   166.745
2002.74     67.208   162.849
2031.87     67.004   160.582
2061.43     66.924   158.455
2091.41     66.807   155.721
2121.83     66.735   153.259
2152.69     66.688   150.433
2184.01     66.630   146.880
2215.77     66.582   143.355
2248.00     66.597   139.860
2280.70     66.596   136.062
2313.87     66.640   131.576
2347.53     66.653   126.450
2381.68     66.598   121.143
2416.32     66.470   115.428
2451.46     66.234   110.227
2487.12     65.937   106.019
2523.30     65.745   102.419
2560.00     65.558    98.652
2597.24     65.457    94.813
2635.01     65.381    90.417
2673.34     65.307    86.081
2712.23     65.242    81.616
2751.68     65.176    77.203
2791.70     65.074    73.285
2832.31     64.956    69.812
2873.50     64.845    66.305
2915.30     64.786    62.779
2957.70     64.713    58.712
3000.72     64.614    54.050
3044.37     64.419    49.265
3088.65     64.123    44.508
3133.58     63.696    40.610
3179.16     63.348    38.519
3225.40     63.190    36.259
3272.31     63.023    33.969
3319.91     62.873    32.079
3368.20     62.879    30.220
3417.19     62.962    27.519
3466.89     62.992    24.353
3517.32     63.007    20.962
3568.48     62.995    17.133
3620.39     62.905    13.686
3673.05     62.889    10.780
3726.47     62.947     7.443
3780.67     63.008     4.089
3835.67     63.116     0.477
3891.46     63.184    -3.549
3948.06     63.210    -6.965
4005.49     63.337    -9.912
4063.75     63.490   -12.971
4122.86     63.711   -16.267
4182.82     63.935   -20.648
4243.66     64.051   -25.648
4305.39     64.109   -30.691
4368.01     64.104   -35.701
4431.55     64.071   -40.157
4496.01     64.047   -44.519
4561.40     63.993   -49.182
4627.75     63.890   -54.117
4695.06     63.731   -59.166
4763.35     63.534   -64.162
4832.64     63.298   -69.023
4902.93     63.057   -73.303
4974.24     62.845   -76.985
5046.60     62.643   -80.257
5120.00     62.536   -83.147
5194.47     62.507   -86.243
5270.03     62.537   -89.922
5346.68     62.586   -94.209
5424.45     62.571   -99.036
5503.35     62.447  -104.049
5583.40     62.192  -109.055
5664.61     61.784  -113.841
5747.01     61.278  -118.138
5830.60     60.723  -121.911
5915.41     60.131  -125.080
6001.45     59.563  -127.421
6088.74     59.092  -129.132
6177.30     58.720  -130.628
6267.15     58.430  -131.886
6358.31     58.220  -132.898
6450.80     58.118  -133.986
6544.62     58.112  -135.558
6639.82     58.130  -138.001
6736.40     58.107  -141.157
6834.38     58.007  -144.460
6933.79     57.886  -147.482
7034.64     57.848  -149.810
7136.96     57.889  -151.723
7240.77     57.993  -153.778
7346.09     58.147  -155.911
7452.94     58.278  -158.581
7561.35     58.343  -162.393
7671.33     58.351  -166.842
7782.91     58.287  -171.714
7896.12     58.114  -177.472
8010.97     57.808   176.252
8127.49     57.374   170.226
8245.71     56.848   164.960
8365.65     56.283   161.134
8487.33     55.788   159.078
8610.78     55.475   158.262
8736.03     55.327   157.760
8863.09     55.268   156.533
8992.01     55.258   153.814
9122.80     55.181   149.535
9255.50     54.876   144.123
9390.12     54.273   138.466
9526.70     53.414   133.959
9665.27     52.394   131.760
9805.86     51.382   132.257
9948.49     50.655   134.787
10093.2     50.391   137.708
10240.0     50.511   139.084
10388.9     50.785   138.029
10540.1     51.021   135.255
10693.4     51.161   131.603
10848.9     51.198   127.620
11006.7     51.114   123.738
11166.8     50.913   119.670
11329.2     50.554   115.140
11494.0     49.985   110.826
11661.2     49.305   107.578
11830.8     48.646   105.490
12002.9     48.133   104.192
12177.5     47.845   102.711
12354.6     47.609   100.117
12534.3     47.248    97.126
12716.6     46.683    95.149
12901.6     45.929    95.179
13089.2     45.212    97.386
13279.6     44.797   100.386
13472.8     44.810   102.201
13668.8     45.179   101.169
13867.6     45.667    96.872
14069.3     46.031    90.825
14273.9     46.156    85.128
14481.5     46.023    81.400
14692.2     45.751    80.166
14905.9     45.602    80.537
15122.7     45.718    80.960
15342.7     46.099    80.404
15565.8     46.717    78.704
15792.2     47.496    75.985
16021.9     48.379    72.530
16255.0     49.317    67.959
16491.4     50.254    61.353
16731.3     51.005    52.535
16974.7     51.364    41.972
17221.6     51.300    31.182
17472.1     50.876    22.034
17726.2     50.233    15.014
17984.0     49.625     9.644
18245.6     49.239     5.063
18511.0     49.104    -0.143
18780.2     49.103    -7.088
19053.4     49.055   -15.502
19330.5     48.865   -24.598
19611.7     48.520   -33.851
19897.0     48.009   -42.347
20186.4     47.337   -49.298
20480.0     46.537   -54.221
20777.9     45.729   -57.431
21080.1     45.058   -60.999
21386.7     44.490   -65.949
21697.8     44.071   -71.581
22013.4     43.921   -77.877
22333.6     43.880   -84.451
22658.4     43.834   -90.349
22988.0     43.815   -95.783
23322.4     43.682  -101.838
23661.6     43.327  -108.971
24005.8     42.790  -116.431
24355.0     42.153  -123.016
24709.2     41.575  -128.355
25068.6     41.246  -133.003
25433.2     41.139  -137.328
25803.2     41.086  -141.944
26178.5     40.971  -147.489
26559.3     40.688  -153.727
26945.6     40.241  -159.301
27337.5     39.847  -162.954
27735.2     39.823  -165.433
28138.6     40.387  -167.628
28547.9     41.350  -170.667
28963.1     42.249  -176.784
29384.4     42.643   174.320
29811.8     42.457   163.885
30245.4     41.910   151.680
30685.3     41.336   138.178
31131.7     41.137   122.916
31584.5     41.445   103.466
32043.9     41.880    76.816
32510.0     41.958    40.226
32982.8     41.370    -6.634
33462.6     40.164   -60.100
33949.3     38.639  -112.750
34443.1     37.319  -158.327
34944.1     36.918   165.267
35452.4     37.883   137.783
35968.0     39.707   114.036
36491.2     41.374    87.373
37022.0     42.395    57.064
37560.5     42.724    25.639
38106.8     42.335    -2.566
38661.1     41.343   -23.888
39223.4     40.229   -38.772
