Freq[Hz]     dBSPL  Phase[Deg]
5.00000    -21.340    11.713
5.07273    -20.398    16.426
5.14651    -19.542    19.692
5.22137    -18.927    18.904
5.29732    -18.312    18.116
5.37437    -17.698    17.328
5.45254    -17.082    16.547
5.53185    -16.758    15.067
5.61231    -16.742    12.844
5.69394    -16.726    10.621
5.77676    -16.709     8.406
5.86079    -16.708     6.210
5.94604    -17.600     5.007
6.03252    -18.492     3.803
6.12027    -19.384     2.609
6.20929    -20.275     1.418
6.29961    -21.768    15.166
6.39124    -23.393    32.227
6.48420    -25.019    49.303
6.57851    -26.644    66.378
6.67420    -24.620    76.361
6.77128    -22.004    85.198
6.86977    -19.388    94.045
6.96969    -16.941   101.474
7.07107    -15.783    98.116
7.17392    -14.625    94.775
7.27827    -13.467    91.433
7.38413    -12.884    87.055
7.49154    -12.744    81.893
7.60050    -12.604    76.733
7.71105    -12.712    71.452
7.82321    -13.914    65.651
7.93701    -15.116    59.856
8.05245    -16.318    54.060
8.16958    -21.387   -15.062
8.28841    -26.601   -86.548
8.40896    -31.816  -158.034
8.53128    -26.406  -168.473
8.65537    -19.626  -171.038
8.78126    -12.847  -173.600
8.90899    -10.803   178.377
9.03857     -9.070   169.995
9.17004     -7.477   161.379
9.30342     -6.984   150.859
9.43874     -6.492   140.339
9.57603     -6.389   127.712
9.71532     -6.874   111.863
9.85663     -7.363    96.010
10.0000     -7.640    69.740
10.1455     -7.858    40.562
10.2930     -7.468    12.301
10.4427     -5.374   -13.384
10.5946     -3.283   -39.085
10.7487     -1.417   -56.202
10.9051      0.401   -71.627
11.0637      1.860   -85.566
11.2246      2.937   -97.953
11.3879      3.874  -110.190
11.5535      4.303  -121.874
11.7216      4.720  -133.572
11.8921      4.501  -145.571
12.0650      4.281  -157.579
12.2405      3.354  -170.999
12.4186      2.335   175.394
12.5992      0.374   156.681
12.7825     -1.796   136.836
12.9684     -3.467    98.888
13.1570     -5.023    56.726
13.3484     -2.891    22.946
13.5426     -0.160    -9.478
13.7395      1.859   -25.734
13.9394      3.748   -40.809
14.1421      4.838   -51.559
14.3478      5.758   -61.502
14.5565      6.309   -69.686
14.7683      6.694   -76.791
14.9831      6.952   -83.064
15.2010      7.105   -88.275
15.4221      7.229   -93.238
15.6464      7.303   -97.897
15.8740      7.303  -102.611
16.1049      7.243  -107.369
16.3392      6.939  -111.705
16.5768      6.505  -115.098
16.8179      5.897  -117.146
17.0626      5.317  -114.708
17.3107      5.107  -109.964
17.5625      5.459  -102.590
17.8180      6.862   -98.172
18.0771      8.437   -96.950
18.3401     10.077   -98.970
18.6068     11.433  -103.905
18.8775     12.492  -109.368
19.1521     13.322  -114.568
19.4306     13.951  -118.908
19.7133     14.478  -121.130
20.0000     15.143  -121.627
20.2909     16.028  -121.389
20.5860     17.147  -121.260
20.8855     18.440  -122.181
21.1893     19.726  -124.766
21.4975     20.868  -128.182
21.8102     21.848  -131.767
22.1274     22.686  -134.969
22.4492     23.442  -137.392
22.7758     24.202  -138.928
23.1071     25.049  -139.866
23.4432     26.020  -140.814
23.7841     27.072  -142.396
24.1301     28.119  -144.730
24.4811     29.103  -147.590
24.8372     30.005  -150.637
25.1984     30.838  -153.568
25.5649     31.642  -156.225
25.9368     32.453  -158.639
26.3141     33.298  -160.966
26.6968     34.178  -163.391
27.0851     35.086  -166.034
27.4791     36.007  -168.945
27.8788     36.933  -172.122
28.2843     37.859  -175.549
28.6957     38.779  -179.209
29.1131     39.688   176.943
29.5365     40.585   172.979
29.9661     41.474   168.976
30.4020     42.364   164.982
30.8442     43.272   160.982
31.2929     44.196   156.919
31.7480     45.136   152.751
32.2098     46.079   148.446
32.6783     47.017   143.982
33.1536     47.938   139.408
33.6359     48.839   134.751
34.1251     49.712   130.046
34.6215     50.559   125.317
35.1250     51.382   120.572
35.6359     52.183   115.757
36.1543     52.960   110.837
36.6802     53.706   105.799
37.2137     54.418   100.654
37.7550     55.105    95.426
38.3041     55.771    90.076
38.8613     56.422    84.566
39.4265     57.048    78.907
40.0000     57.655    73.168
40.5818     58.255    67.382
41.1721     58.858    61.493
41.7710     59.449    55.451
42.3785     60.004    49.323
42.9949     60.519    43.346
43.6203     61.016    37.667
44.2548     61.529    32.252
44.8985     62.055    26.889
45.5515     62.575    21.499
46.2141     63.072    16.155
46.8863     63.550    10.944
47.5683     64.019     5.830
48.2602     64.475     0.712
48.9621     64.906    -4.437
49.6743     65.308    -9.597
50.3968     65.679   -14.775
51.1299     66.022   -20.000
51.8736     66.334   -25.287
52.6281     66.624   -30.632
53.3936     66.900   -36.036
54.1702     67.171   -41.495
54.9581     67.445   -46.966
55.7575     67.729   -52.381
56.5685     68.025   -57.684
57.3914     68.325   -62.801
58.2261     68.611   -67.660
59.0730     68.859   -72.163
59.9323     69.058   -76.280
60.8040     69.207   -80.084
61.6884     69.302   -83.808
62.5857     69.337   -87.666
63.4960     69.319   -91.784
64.4196     69.276   -96.229
65.3566     69.243  -101.001
66.3073     69.246  -106.022
67.2717     69.300  -111.134
68.2502     69.397  -116.047
69.2429     69.531  -120.525
70.2501     69.675  -124.528
71.2719     69.792  -128.127
72.3086     69.860  -131.564
73.3603     69.853  -135.103
74.4274     69.796  -138.901
75.5099     69.728  -143.156
76.6083     69.674  -147.711
77.7226     69.695  -152.223
78.8531     69.818  -156.517
80.0000     70.020  -160.354
81.1636     70.250  -163.696
82.3442     70.443  -166.562
83.5419     70.573  -169.187
84.7570     70.624  -171.886
85.9899     70.613  -174.830
87.2406     70.575  -177.983
88.5096     70.563   178.740
89.7970     70.590   175.320
91.1031     70.633   171.821
92.4282     70.659   168.314
93.7726     70.649   164.861
95.1366     70.598   161.640
96.5204     70.566   158.712
97.9243     70.563   155.886
99.3486     70.585   153.184
100.794     70.611   150.489
102.260     70.630   147.792
103.747     70.635   145.035
105.256     70.630   142.273
106.787     70.625   139.502
108.340     70.608   136.683
109.916     70.557   133.860
111.515     70.483   131.244
113.137     70.443   128.718
114.783     70.426   126.164
116.452     70.410   123.713
118.146     70.394   121.489
119.865     70.374   119.358
121.608     70.341   117.202
123.377     70.311   115.017
125.171     70.291   112.787
126.992     70.278   110.526
128.839     70.264   108.252
130.713     70.236   105.956
132.615     70.187   103.774
134.543     70.145   101.739
136.500     70.121    99.734
138.486     70.101    97.859
140.500     70.060    95.838
142.544     70.020    93.854
144.617     69.996    91.968
146.721     69.951    90.252
148.855     69.942    88.660
151.020     69.962    86.796
153.217     69.943    84.666
155.445     69.925    82.668
157.706     69.918    80.286
160.000     69.748    78.131
162.327     69.593    77.117
164.688     69.570    76.231
167.084     69.633    74.970
169.514     69.716    72.694
171.980     69.569    70.217
174.481     69.383    69.013
177.019     69.326    68.234
179.594     69.323    67.265
182.206     69.286    66.382
184.856     69.317    65.397
187.545     69.357    64.076
190.273     69.384    62.750
193.041     69.400    61.031
195.849     69.397    59.351
198.697     69.465    57.641
201.587     69.447    55.778
204.520     69.280    54.026
207.494     69.155    52.922
210.512     69.124    52.128
213.574     69.129    50.966
216.681     69.019    49.833
219.833     69.030    49.069
223.030     69.042    48.424
226.274     69.102    47.531
229.565     69.184    45.778
232.905     69.146    43.838
236.292     69.063    42.815
239.729     69.029    42.199
243.216     69.073    41.530
246.754     69.138    39.696
250.343     69.070    38.010
253.984     68.975    37.233
257.678     68.948    36.460
261.426     68.967    35.356
265.229     68.982    34.122
269.087     68.944    32.484
273.001     68.800    31.791
276.972     68.792    31.578
281.000     68.859    30.793
285.088     68.877    30.054
289.234     68.935    28.989
293.441     68.999    27.640
297.709     68.978    26.115
302.040     68.904    24.322
306.433     68.691    23.203
310.890     68.628    23.289
315.412     68.616    22.396
320.000     68.592    21.884
324.655     68.527    20.901
329.377     68.414    20.165
334.168     68.331    20.165
339.028     68.306    21.280
343.959     68.713    20.785
348.962     68.727    17.764
354.038     68.540    16.835
359.188     68.517    16.331
364.412     68.467    15.578
369.713     68.373    14.872
375.090     68.286    15.215
380.546     68.321    15.040
386.081     68.362    14.146
391.697     68.248    14.059
397.394     68.311    13.909
403.175     68.234    13.541
409.039     68.212    13.900
414.989     68.316    14.173
421.025     68.477    13.631
427.149     68.437    12.540
433.362     68.436    12.930
439.665     68.557    12.705
446.060     68.744    11.805
452.548     68.768    10.795
459.131     68.841     9.822
465.809     68.875     8.594
472.584     68.897     7.657
479.458     68.981     6.455
486.432     68.980     4.959
493.507     68.974     3.656
500.686     68.975     2.078
507.968     68.920     0.551
515.357     68.869    -0.908
522.853     68.783    -2.232
530.458     68.702    -3.507
538.174     68.601    -4.499
546.002     68.506    -5.470
553.943     68.394    -6.290
562.001     68.298    -7.113
570.175     68.193    -7.723
578.469     68.108    -8.372
586.883     68.021    -8.795
595.419     67.944    -9.317
604.080     67.893    -9.757
612.866     67.841   -10.092
621.780     67.791   -10.529
630.824     67.762   -10.982
640.000     67.733   -11.515
649.309     67.700   -12.015
658.753     67.671   -12.683
668.335     67.633   -13.323
678.056     67.593   -13.995
687.919     67.539   -14.682
697.925     67.467   -15.326
708.077     67.387   -15.930
718.376     67.293   -16.410
728.825     67.201   -16.822
739.426     67.094   -17.028
750.181     66.995   -17.144
761.093     66.920   -17.065
772.163     66.843   -16.780
783.394     66.796   -16.445
794.789     66.787   -16.030
806.349     66.804   -15.576
818.078     66.851   -15.208
829.977     66.929   -14.849
842.050     67.019   -14.652
854.298     67.131   -14.627
866.724     67.257   -14.673
879.330     67.385   -14.826
892.120     67.517   -15.088
905.097     67.656   -15.381
918.262     67.807   -15.685
931.618     67.963   -16.080
945.169     68.150   -16.523
958.917     68.356   -17.175
972.864     68.596   -17.992
987.015     68.853   -19.098
1001.37     69.114   -20.569
1015.94     69.376   -22.503
1030.71     69.616   -24.831
1045.71     69.816   -27.605
1060.92     69.959   -30.761
1076.35     70.023   -34.210
1092.00     69.995   -37.834
1107.89     69.866   -41.460
1124.00     69.624   -44.935
1140.35     69.270   -48.046
1156.94     68.812   -50.471
1173.77     68.283   -51.946
1190.84     67.738   -52.044
1208.16     67.275   -50.701
1225.73     67.005   -48.228
1243.56     67.025   -45.316
1261.65     67.335   -43.016
1280.00     67.843   -42.186
1298.62     68.435   -43.004
1317.51     68.985   -45.519
1336.67     69.420   -49.414
1356.11     69.710   -54.212
1375.84     69.818   -59.667
1395.85     69.747   -65.430
1416.15     69.471   -71.187
1436.75     69.003   -76.680
1457.65     68.348   -81.376
1478.85     67.514   -85.056
1500.36     66.550   -87.261
1522.19     65.546   -87.449
1544.33     64.611   -85.404
1566.79     63.938   -81.524
1589.58     63.636   -76.862
1612.70     63.713   -72.794
1636.16     64.021   -70.323
1659.95     64.394   -69.673
1684.10     64.707   -70.600
1708.60     64.904   -72.553
1733.45     64.926   -74.967
1758.66     64.779   -77.306
1784.24     64.497   -78.979
1810.19     64.142   -79.590
1836.52     63.859   -78.960
1863.24     63.744   -77.505
1890.34     63.855   -76.346
1917.83     64.118   -76.403
1945.73     64.359   -77.870
1974.03     64.452   -80.610
2002.74     64.316   -83.601
2031.87     63.942   -85.831
2061.43     63.447   -86.321
2091.41     63.036   -84.729
2121.83     62.929   -81.849
2152.69     63.166   -79.555
2184.01     63.566   -78.914
2215.77     63.898   -79.930
2248.00     64.092   -81.496
2280.70     64.178   -82.607
2313.87     64.290   -83.046
2347.53     64.553   -83.290
2381.68     64.952   -84.406
2416.32     65.371   -86.889
2451.46     65.667   -90.515
2487.12     65.774   -94.576
2523.30     65.709   -98.410
2560.00     65.548  -101.511
2597.24     65.351  -103.874
2635.01     65.179  -105.682
2673.34     65.032  -107.119
2712.23     64.932  -108.267
2751.68     64.881  -109.268
2791.70     64.889  -110.250
2832.31     64.931  -111.329
2873.50     65.001  -112.432
2915.30     65.134  -113.626
2957.70     65.337  -115.321
3000.72     65.536  -117.943
3044.37     65.603  -121.343
3088.65     65.474  -124.514
3133.58     65.252  -126.299
3179.16     65.167  -126.798
3225.40     65.305  -127.563
3272.31     65.499  -129.602
3319.91     65.543  -132.295
3368.20     65.479  -134.163
3417.19     65.518  -135.210
3466.89     65.728  -136.773
3517.32     65.915  -139.652
3568.48     65.901  -142.817
3620.39     65.777  -145.010
3673.05     65.742  -146.339
3726.47     65.809  -147.817
3780.67     65.872  -149.701
3835.67     65.932  -151.343
3891.46     66.065  -153.050
3948.06     66.206  -155.511
4005.49     66.234  -158.392
4063.75     66.172  -160.716
4122.86     66.157  -162.608
4182.82     66.159  -164.828
4243.66     66.057  -167.008
4305.39     65.926  -168.340
4368.01     65.901  -169.317
4431.55     65.877  -170.935
4496.01     65.680  -171.960
4561.40     65.574  -170.618
4627.75     65.968  -169.335
4695.06     66.511  -171.365
4763.35     66.651  -174.887
4832.64     66.605  -176.338
4902.93     66.885  -177.214
4974.24     67.185   179.323
5046.60     67.059   175.471
5120.00     66.848   174.296
5194.47     66.975   173.303
5270.03     67.021   170.200
5346.68     66.708   168.027
5424.45     66.561   168.395
5503.35     66.724   167.532
5583.40     66.624   165.296
5664.61     66.385   165.624
5747.01     66.680   166.667
5830.60     67.073   163.803
5915.41     66.917   160.032
6001.45     66.645   158.875
6088.74     66.522   157.509
6177.30     66.143   157.084
6267.15     66.187   159.075
6358.31     66.445   157.056
6450.80     66.127   155.636
6544.62     66.164   156.005
6639.82     66.004   153.637
6736.40     65.605   154.593
6834.38     65.629   155.085
6933.79     65.346   155.168
7034.64     65.250   157.325
7136.96     65.340   158.377
7240.77     65.359   158.763
7346.09     65.271   159.908
7452.94     65.398   161.424
7561.35     65.408   161.816
7671.33     65.490   164.133
7782.91     65.793   164.410
7896.12     65.853   165.305
8010.97     66.134   165.265
8127.49     66.007   165.786
8245.71     66.380   167.756
8365.65     66.468   166.964
8487.33     66.834   169.355
8610.78     67.173   166.390
8736.03     67.267   167.523
8863.09     67.521   163.317
8992.01     67.139   164.714
9122.80     67.326   163.037
9255.50     67.111   165.390
9390.12     67.415   163.177
9526.70     67.131   165.240
9665.27     67.433   163.327
9805.86     67.239   165.211
9948.49     67.412   163.202
10093.2     67.396   164.215
10240.0     67.227   161.101
10388.9     66.821   162.810
10540.1     66.480   164.116
10693.4     66.607   167.503
10848.9     66.575   168.461
11006.7     66.769   170.676
11166.8     67.033   172.123
11329.2     67.577   170.986
11494.0     67.496   168.032
11661.2     67.260   165.846
11830.8     66.936   167.269
12002.9     66.796   166.208
12177.5     66.618   165.302
12354.6     66.199   165.975
12534.3     65.669   165.071
12716.6     65.181   167.347
12901.6     64.888   171.281
13089.2     64.823   172.855
13279.6     64.689   172.827
13472.8     64.312   174.441
13668.8     63.937   176.473
13867.6     63.551   178.336
14069.3     63.320  -178.724
14273.9     63.012  -175.732
14481.5     62.712  -172.557
14692.2     62.590  -169.667
14905.9     62.586  -167.084
15122.7     62.363  -165.090
15342.7     62.001  -162.061
15565.8     61.900  -159.105
15792.2     61.881  -157.461
16021.9     61.691  -155.771
16255.0     61.444  -153.754
16491.4     61.047  -152.114
16731.3     60.610  -149.675
16974.7     60.091  -146.401
17221.6     59.866  -141.125
17472.1     60.016  -138.137
17726.2     59.890  -138.130
17984.0     59.315  -137.733
18245.6     58.550  -136.671
18511.0     57.411  -134.814
18780.2     55.898  -127.551
19053.4     55.302  -112.888
19330.5     56.182  -102.797
19611.7     56.882  -101.689
19897.0     56.554  -102.519
20186.4     56.305  -100.618
20480.0     56.055   -98.716
20777.9     55.806   -96.815
21080.1     55.556   -94.913
21386.7     55.307   -93.012
21697.8     55.058   -91.110
22013.4     54.808   -89.209
22333.6     54.559   -87.307
22658.4     54.309   -85.406
22988.0     54.060   -83.504
23322.4     53.810   -81.603
23661.6     53.561   -79.701
24005.8     53.312   -77.800
24355.0     53.062   -75.898
24709.2     52.813   -73.997
25068.6     52.563   -72.095
25433.2     52.314   -70.193
25803.2     52.065   -68.292
26178.5     51.815   -66.390
26559.3     51.566   -64.489
26945.6     51.316   -62.587
27337.5     51.067   -60.686
27735.2     50.817   -58.784
28138.6     50.568   -56.883
28547.9     50.319   -54.981
28963.1     50.069   -53.080
29384.4     49.820   -51.178
29811.8     49.570   -49.277
30245.4     49.321   -47.375
30685.3     49.072   -45.474
31131.7     48.822   -43.572
31584.5     48.573   -41.671
32043.9     48.323   -39.769
32510.0     48.074   -37.868
32982.8     47.824   -35.966
33462.6     47.575   -34.064
33949.3     47.326   -32.163
34443.1     47.076   -30.261
34944.1     46.827   -28.360
35452.4     46.577   -26.458
35968.0     46.328   -24.557
36491.2     46.079   -22.655
37022.0     45.829   -20.754
37560.5     45.580   -18.852
38106.8     45.330   -16.951
38661.1     45.081   -15.049
39223.4     44.832   -13.148
39793.9     44.582   -11.246
