Freq[Hz]     dBSPL  Phase[Deg]
5.00000    -17.152    10.530
5.07273    -16.215    15.150
5.14651    -15.364    18.318
5.22137    -14.753    17.433
5.29732    -14.143    16.547
5.37437    -13.532    15.662
5.45254    -12.919    14.779
5.53185    -12.598    13.195
5.61231    -12.584    10.869
5.69394    -12.571     8.544
5.77676    -12.557     6.223
5.86079    -12.556     3.921
5.94604    -13.450     2.611
6.03252    -14.344     1.301
6.12027    -15.236    -0.001
6.20929    -16.127    -1.300
6.29961    -17.620    12.341
6.39124    -19.245    29.294
6.48420    -20.869    46.262
6.57851    -22.493    63.230
6.67420    -20.467    73.105
6.77128    -17.849    81.837
6.86977    -15.229    90.579
6.96969    -12.779    97.904
7.07107    -11.617    94.441
7.17392    -10.455    91.001
7.27827     -9.294    87.561
7.38413     -8.706    83.084
7.49154     -8.561    77.829
7.60050     -8.416    72.578
7.71105     -8.519    67.205
7.82321     -9.715    61.321
7.93701    -10.911    55.443
8.05245    -12.106    49.566
8.16958    -17.169   -19.629
8.28841    -22.377   -91.185
8.40896    -27.585  -162.741
8.53128    -22.169  -173.238
8.65537    -15.383  -175.861
8.78126     -8.597  -178.477
8.90899     -6.548   173.455
9.03857     -4.809   165.028
9.17004     -3.211   156.376
9.30342     -2.714   145.824
9.43874     -2.218   135.273
9.57603     -2.112   122.625
9.71532     -2.595   106.755
9.85663     -3.083    90.888
10.0000     -3.359    64.605
10.1455     -3.578    35.417
10.2930     -3.190     7.148
10.4427     -1.098   -18.544
10.5946      0.987   -44.252
10.7487      2.848   -61.375
10.9051      4.658   -76.808
11.0637      6.108   -90.757
11.2246      7.174  -103.159
11.3879      8.099  -115.412
11.5535      8.515  -127.122
11.7216      8.918  -138.849
11.8921      8.682  -150.887
12.0650      8.446  -162.939
12.2405      7.500  -176.417
12.4186      6.463   169.912
12.5992      4.482   151.119
12.7825      2.292   131.190
12.9684      0.601    93.137
13.1570     -0.975    50.864
13.3484      1.136    16.956
13.5426      3.847   -15.607
13.7395      5.847   -32.013
13.9394      7.716   -47.253
14.1421      8.788   -58.175
14.3478      9.692   -68.306
14.5565     10.228   -76.685
14.7683     10.599   -83.992
14.9831     10.845   -90.477
15.2010     10.989   -95.902
15.4221     11.107  -101.084
15.6464     11.176  -105.961
15.8740     11.173  -110.892
16.1049     11.113  -115.862
16.3392     10.812  -120.399
16.5768     10.383  -123.985
16.8179      9.781  -126.213
17.0626      9.209  -123.931
17.3107      9.010  -119.324
17.5625      9.371  -112.068
17.8180     10.786  -107.743
18.0771     12.371  -106.580
18.3401     14.018  -108.635
18.6068     15.380  -113.582
18.8775     16.441  -119.033
19.1521     17.270  -124.199
19.4306     17.893  -128.489
19.7133     18.408  -130.651
20.0000     19.055  -131.085
20.2909     19.917  -130.787
20.5860     21.007  -130.611
20.8855     22.265  -131.502
21.1893     23.510  -134.083
21.4975     24.608  -137.531
21.8102     25.539  -141.185
22.1274     26.327  -144.498
22.4492     27.031  -147.076
22.7758     27.740  -148.814
23.1071     28.537  -149.998
23.4432     29.461  -151.236
23.7841     30.471  -153.148
24.1301     31.481  -155.846
24.4811     32.434  -159.099
24.8372     33.313  -162.558
25.1984     34.131  -165.908
25.5649     34.928  -168.983
25.9368     35.742  -171.795
26.3141     36.599  -174.490
26.6968     37.498  -177.236
27.0851     38.431   179.858
27.4791     39.381   176.755
27.8788     40.339   173.463
28.2843     41.294   170.006
28.6957     42.238   166.402
29.1131     43.164   162.682
29.5365     44.066   158.904
29.9661     44.948   155.128
30.4020     45.817   151.379
30.8442     46.687   147.615
31.2929     47.562   143.758
31.7480     48.439   139.737
32.2098     49.311   135.512
32.6783     50.172   131.047
33.1536     51.014   126.382
33.6359     51.838   121.557
34.1251     52.637   116.601
34.6215     53.418   111.564
35.1250     54.185   106.466
35.6359     54.941   101.277
36.1543     55.682    95.985
36.6802     56.402    90.593
37.2137     57.097    85.141
37.7550     57.772    79.656
38.3041     58.427    74.111
38.8613     59.067    68.466
39.4265     59.677    62.719
40.0000     60.263    56.927
40.5818     60.833    51.103
41.1721     61.400    45.170
41.7710     61.950    39.064
42.3785     62.462    32.844
42.9949     62.933    26.746
43.6203     63.389    20.926
44.2548     63.862    15.364
44.8985     64.354     9.865
45.5515     64.840     4.363
46.2141     65.303    -1.062
46.8863     65.743    -6.325
47.5683     66.167   -11.476
48.2602     66.572   -16.637
48.9621     66.945   -21.864
49.6743     67.284   -27.161
50.3968     67.593   -32.548
51.1299     67.880   -38.054
51.8736     68.152   -43.671
52.6281     68.417   -49.343
53.3936     68.684   -55.015
54.1702     68.959   -60.624
54.9581     69.240   -66.078
55.7575     69.520   -71.317
56.5685     69.790   -76.321
57.3914     70.031   -81.096
58.2261     70.226   -85.673
59.0730     70.357   -90.061
59.9323     70.427   -94.300
60.8040     70.450   -98.503
61.6884     70.446  -102.862
62.5857     70.423  -107.493
63.4960     70.396  -112.372
64.4196     70.388  -117.405
65.3566     70.411  -122.478
66.3073     70.471  -127.482
67.2717     70.555  -132.327
68.2502     70.643  -136.868
69.2429     70.731  -141.028
70.2501     70.810  -144.880
71.2719     70.863  -148.514
72.3086     70.885  -152.100
73.3603     70.860  -155.769
74.4274     70.802  -159.542
75.5099     70.730  -163.550
76.6083     70.643  -167.681
77.7226     70.586  -171.745
78.8531     70.590  -175.778
80.0000     70.656  -179.685
81.1636     70.767   176.559
82.3442     70.887   173.072
83.5419     70.996   169.836
84.7570     71.064   166.718
85.9899     71.084   163.633
87.2406     71.064   160.574
88.5096     71.043   157.514
89.7970     71.035   154.303
91.1031     71.028   150.920
92.4282     71.001   147.426
93.7726     70.942   143.919
95.1366     70.850   140.619
96.5204     70.784   137.612
97.9243     70.748   134.717
99.3486     70.741   131.962
100.794     70.739   129.234
102.260     70.727   126.512
103.747     70.697   123.714
105.256     70.660   120.875
106.787     70.628   117.999
108.340     70.593   115.087
109.916     70.528   112.216
111.515     70.439   109.600
113.137     70.381   107.102
114.783     70.342   104.593
116.452     70.299   102.202
118.146     70.245   100.022
119.865     70.179    97.848
121.608     70.106    95.507
123.377     70.058    93.070
125.171     70.045    90.692
126.992     70.041    88.456
128.839     70.017    86.311
130.713     69.956    84.072
132.615     69.873    81.795
134.543     69.816    79.629
136.500     69.788    77.573
138.486     69.754    75.711
140.500     69.689    73.658
142.544     69.628    71.556
144.617     69.594    69.546
146.721     69.544    67.750
148.855     69.524    66.085
151.020     69.535    64.119
153.217     69.512    61.907
155.445     69.483    59.858
157.706     69.457    57.338
160.000     69.282    54.946
162.327     69.147    53.752
164.688     69.147    52.896
167.084     69.194    51.716
169.514     69.248    49.296
171.980     69.095    46.539
174.481     68.925    45.147
177.019     68.871    44.263
179.594     68.867    43.082
182.206     68.851    41.973
184.856     68.901    40.936
187.545     68.929    39.511
190.273     68.954    37.859
193.041     69.001    35.875
195.849     69.019    34.127
198.697     69.079    32.236
201.587     69.072    29.993
204.520     68.944    27.968
207.494     68.840    26.736
210.512     68.811    25.680
213.574     68.837    24.156
216.681     68.759    22.743
219.833     68.791    21.711
223.030     68.825    20.706
226.274     68.923    19.490
229.565     69.032    17.506
232.905     68.996    15.206
236.292     68.935    13.622
239.729     68.954    12.549
243.216     69.034    11.588
246.754     69.107     9.319
250.343     69.065     7.037
253.984     69.009     5.659
257.678     69.027     4.316
261.426     69.082     2.710
265.229     69.118     0.829
269.087     69.120    -1.540
273.001     69.015    -2.837
276.972     69.017    -3.799
281.000     69.119    -5.537
285.088     69.182    -6.994
289.234     69.235    -8.909
293.441     69.338   -11.375
297.709     69.335   -13.762
302.040     69.266   -16.791
306.433     69.078   -18.876
310.890     68.985   -20.022
315.412     69.002   -22.186
320.000     68.947   -23.726
324.655     68.845   -25.954
329.377     68.651   -28.014
334.168     68.501   -29.547
339.028     68.395   -29.802
343.959     68.724   -31.581
348.962     68.580   -35.888
354.038     68.278   -38.231
359.188     68.077   -39.829
364.412     67.857   -41.744
369.713     67.559   -43.323
375.090     67.252   -43.839
380.546     67.067   -44.784
386.081     66.893   -46.051
391.697     66.542   -46.424
397.394     66.397   -46.781
403.175     66.144   -46.914
409.039     65.910   -46.186
414.989     65.861   -45.598
421.025     65.896   -45.435
427.149     65.737   -45.816
433.362     65.630   -44.788
439.665     65.722   -44.501
446.060     65.890   -44.641
452.548     65.913   -45.117
459.131     66.026   -45.697
465.809     66.125   -46.522
472.584     66.222   -47.112
479.458     66.361   -48.158
486.432     66.472   -49.952
493.507     66.578   -51.423
500.686     66.690   -53.355
507.968     66.749   -55.253
515.357     66.774   -57.532
522.853     66.803   -59.747
530.458     66.798   -62.026
538.174     66.779   -64.140
546.002     66.726   -66.464
553.943     66.670   -68.589
562.001     66.558   -70.710
570.175     66.445   -72.869
578.469     66.289   -74.756
586.883     66.117   -76.702
595.419     65.923   -78.465
604.080     65.727   -79.921
612.866     65.500   -81.122
621.780     65.269   -82.127
630.824     65.050   -82.780
640.000     64.855   -83.314
649.309     64.704   -83.307
658.753     64.568   -83.033
668.335     64.501   -82.743
678.056     64.509   -82.250
687.919     64.572   -81.839
697.925     64.698   -81.521
708.077     64.923   -81.484
718.376     65.161   -81.685
728.825     65.457   -82.452
739.426     65.769   -83.492
750.181     66.084   -85.127
761.093     66.406   -87.052
772.163     66.717   -89.554
783.394     67.007   -92.342
794.789     67.268   -95.482
806.349     67.494   -98.817
818.078     67.673  -102.500
829.977     67.811  -106.475
842.050     67.911  -110.519
854.298     67.957  -114.832
866.724     67.958  -119.191
879.330     67.899  -123.668
892.120     67.781  -128.183
905.097     67.617  -132.667
918.262     67.388  -137.085
931.618     67.092  -141.351
945.169     66.728  -145.526
958.917     66.326  -149.455
972.864     65.852  -152.975
987.015     65.333  -155.952
1001.37     64.768  -158.717
1015.94     64.209  -160.723
1030.71     63.644  -162.149
1045.71     63.141  -162.862
1060.92     62.677  -163.001
1076.35     62.293  -162.881
1092.00     62.011  -162.666
1107.89     61.826  -162.322
1124.00     61.679  -162.311
1140.35     61.589  -162.556
1156.94     61.521  -163.086
1173.77     61.478  -163.582
1190.84     61.419  -164.289
1208.16     61.421  -164.980
1225.73     61.455  -165.709
1243.56     61.584  -166.642
1261.65     61.735  -167.666
1280.00     61.930  -169.478
1298.62     62.176  -171.997
1317.51     62.394  -175.266
1336.67     62.536  -179.165
1356.11     62.608   176.279
1375.84     62.559   171.482
1395.85     62.367   166.446
1416.15     62.047   161.742
1436.75     61.599   157.593
1457.65     61.062   154.395
1478.85     60.543   152.160
1500.36     60.114   151.124
1522.19     59.886   150.767
1544.33     59.858   150.020
1566.79     59.974   148.467
1589.58     60.133   145.347
1612.70     60.245   140.846
1636.16     60.205   135.540
1659.95     59.956   129.636
1684.10     59.552   123.932
1708.60     58.959   118.828
1733.45     58.259   115.023
1758.66     57.573   112.436
1784.24     57.048   111.213
1810.19     56.720   109.965
1836.52     56.578   108.011
1863.24     56.560   104.928
1890.34     56.462   100.171
1917.83     56.299    94.489
1945.73     55.953    88.536
1974.03     55.462    82.440
2002.74     54.859    76.720
2031.87     54.214    71.317
2061.43     53.612    66.493
2091.41     53.090    62.076
2121.83     52.675    57.558
2152.69     52.377    52.672
2184.01     52.205    46.739
2215.77     52.043    40.132
2248.00     51.902    32.259
2280.70     51.754    24.568
2313.87     51.572    16.528
2347.53     51.547     9.674
2381.68     51.626     3.283
2416.32     51.981    -3.492
2451.46     52.546   -10.994
2487.12     53.130   -19.171
2523.30     53.601   -27.584
2560.00     54.017   -35.323
2597.24     54.470   -42.369
2635.01     54.987   -48.834
2673.34     55.574   -56.037
2712.23     56.066   -64.039
2751.68     56.264   -72.161
2791.70     56.187   -79.070
2832.31     56.020   -83.108
2873.50     56.096   -84.961
2915.30     56.558   -87.012
2957.70     57.123   -90.996
3000.72     57.463   -96.259
3044.37     57.542  -100.792
3088.65     57.611  -103.517
3133.58     57.915  -105.784
3179.16     58.326  -109.612
3225.40     58.524  -114.873
3272.31     58.373  -119.557
3319.91     58.054  -122.070
3368.20     57.923  -122.938
3417.19     58.012  -123.926
3466.89     58.084  -125.855
3517.32     57.952  -127.753
3568.48     57.699  -128.391
3620.39     57.481  -126.804
3673.05     57.651  -123.340
3726.47     58.368  -120.932
3780.67     59.246  -122.433
3835.67     59.710  -126.457
3891.46     59.796  -129.302
3948.06     59.992  -129.934
4005.49     60.489  -131.840
4063.75     60.750  -136.132
4122.86     60.572  -139.647
4182.82     60.442  -140.606
4243.66     60.587  -141.871
4305.39     60.518  -144.408
4368.01     60.283  -144.781
4431.55     60.429  -144.244
4496.01     60.685  -146.611
4561.40     60.427  -149.292
4627.75     60.111  -148.658
4695.06     60.216  -147.833
4763.35     60.238  -148.923
4832.64     60.089  -148.508
4902.93     60.262  -147.258
4974.24     60.590  -148.297
5046.60     60.669  -150.935
5120.00     60.435  -152.891
5194.47     60.241  -152.959
5270.03     60.286  -154.329
5346.68     59.819  -158.279
5424.45     58.747  -156.748
5503.35     58.569  -151.397
5583.40     58.495  -150.997
5664.61     57.927  -147.384
5747.01     58.178  -142.457
5830.60     58.140  -142.039
5915.41     57.832  -136.437
6001.45     58.614  -130.890
6088.74     59.386  -132.174
6177.30     59.385  -134.427
6267.15     59.269  -133.814
6358.31     59.192  -134.840
6450.80     58.391  -132.483
6544.62     58.581  -124.853
6639.82     59.049  -122.958
6736.40     59.482  -119.111
6834.38     60.302  -120.279
6933.79     60.432  -122.430
7034.64     60.589  -125.143
7136.96     60.016  -128.108
7240.77     59.373  -127.040
7346.09     58.830  -124.845
7452.94     58.265  -122.564
7561.35     57.452  -116.242
7671.33     57.399  -108.652
7782.91     57.651  -100.074
7896.12     58.359   -96.373
8010.97     58.907   -91.786
8127.49     59.667   -92.947
8245.71     59.750   -93.102
8365.65     59.570   -95.486
8487.33     58.788   -92.848
8610.78     58.122   -87.506
8736.03     57.858   -77.069
8863.09     58.815   -67.558
8992.01     59.757   -64.154
9122.80     60.842   -63.061
9255.50     61.209   -64.254
9390.12     61.520   -66.406
9526.70     61.011   -64.657
9665.27     61.213   -60.963
9805.86     61.335   -57.228
9948.49     62.125   -54.293
10093.2     62.528   -53.641
10240.0     63.408   -56.647
10388.9     63.349   -60.412
10540.1     62.784   -65.950
10693.4     61.920   -64.051
10848.9     61.315   -60.514
11006.7     61.457   -56.492
11166.8     61.595   -56.108
11329.2     61.872   -57.337
11494.0     61.546   -63.074
11661.2     60.642   -68.319
11830.8     59.031   -70.373
12002.9     56.964   -71.244
12177.5     55.138   -62.056
12354.6     54.310   -50.424
12534.3     54.184   -48.572
12716.6     53.192   -49.158
12901.6     51.104   -45.133
13089.2     49.389   -36.787
13279.6     48.069   -28.244
13472.8     46.833   -21.673
13668.8     44.419   -14.802
13867.6     41.914    -2.215
14069.3     39.477    16.816
14273.9     37.810    42.429
14481.5     36.005    59.208
14692.2     31.393   101.112
14905.9     35.445   167.027
15122.7     41.019  -174.294
15342.7     44.006  -166.046
15565.8     47.173  -154.519
15792.2     50.388  -152.010
16021.9     52.388  -154.940
16255.0     53.348  -157.549
16491.4     53.613  -154.384
16731.3     54.760  -148.942
16974.7     55.890  -150.020
17221.6     55.862  -151.933
17472.1     55.594  -148.038
17726.2     55.597  -143.312
17984.0     55.418  -138.466
18245.6     55.193  -130.332
18511.0     55.749  -122.482
18780.2     56.296  -118.549
19053.4     56.517  -115.745
19330.5     56.531  -112.241
19611.7     56.696  -108.114
19897.0     57.192  -108.019
20186.4     57.027   -99.215
20480.0     56.862   -90.411
20777.9     56.698   -81.608
21080.1     56.533   -72.804
21386.7     56.368   -64.000
21697.8     56.203   -55.197
22013.4     56.038   -46.393
22333.6     55.873   -37.589
22658.4     55.708   -28.786
22988.0     55.543   -19.982
23322.4     55.379   -11.178
23661.6     55.214    -2.374
24005.8     55.049     6.429
24355.0     54.884    15.233
24709.2     54.719    24.037
25068.6     54.554    32.840
25433.2     54.389    41.644
25803.2     54.224    50.448
26178.5     54.060    59.251
26559.3     53.895    68.055
26945.6     53.730    76.859
27337.5     53.565    85.662
27735.2     53.400    94.466
28138.6     53.235   103.270
28547.9     53.070   112.074
28963.1     52.905   120.877
29384.4     52.740   129.681
29811.8     52.576   138.485
30245.4     52.411   147.288
30685.3     52.246   156.092
31131.7     52.081   164.896
31584.5     51.916   173.699
32043.9     51.751  -177.497
32510.0     51.586  -168.693
32982.8     51.421  -159.890
33462.6     51.257  -151.086
33949.3     51.092  -142.282
34443.1     50.927  -133.479
34944.1     50.762  -124.675
35452.4     50.597  -115.871
35968.0     50.432  -107.067
36491.2     50.267   -98.264
37022.0     50.102   -89.460
37560.5     49.938   -80.656
38106.8     49.773   -71.853
38661.1     49.608   -63.049
39223.4     49.443   -54.245
39793.9     49.278   -45.442
