Freq[Hz]     dBSPL  Phase[Deg]
5.00000    -25.696  -172.134
5.07273    -24.795  -168.157
5.14651    -23.969  -165.677
5.22137    -23.384  -167.250
5.29732    -22.800  -168.823
5.37437    -22.215  -170.397
5.45254    -21.614  -172.006
5.53185    -21.302  -174.321
5.61231    -21.299  -177.379
5.69394    -21.296   179.564
5.77676    -21.280   176.502
5.86079    -21.272   173.455
5.94604    -22.159   171.400
6.03252    -23.045   169.345
6.12027    -23.919   167.309
6.20929    -24.787   165.279
6.29961    -26.256   178.189
6.39124    -27.859  -165.588
6.48420    -29.445  -149.310
6.57851    -31.032  -133.032
6.67420    -28.969  -123.847
6.77128    -26.309  -115.780
6.86977    -23.641  -107.668
6.96969    -21.142  -100.975
7.07107    -19.931  -105.065
7.17392    -18.713  -109.065
7.27827    -17.495  -113.065
7.38413    -16.851  -118.103
7.49154    -16.646  -123.855
7.60050    -16.441  -129.590
7.71105    -16.484  -135.447
7.82321    -17.619  -141.759
7.93701    -18.754  -148.046
8.05245    -19.889  -154.333
8.16958    -24.893   136.117
8.28841    -30.042    64.220
8.40896    -35.191    -7.678
8.53128    -29.722   -18.460
8.65537    -22.881   -21.367
8.78126    -16.044   -24.256
8.90899    -13.948   -32.565
9.03857    -12.163   -41.233
9.17004    -10.525   -50.110
9.30342     -9.991   -60.877
9.43874     -9.459   -71.642
9.57603     -9.326   -84.499
9.71532     -9.780  -100.578
9.85663    -10.248  -116.664
10.0000    -10.506  -143.169
10.1455    -10.711  -172.592
10.2930    -10.316   158.883
10.4427     -8.217   132.930
10.5946     -6.132   106.912
10.7487     -4.271    89.479
10.9051     -2.467    73.672
11.0637     -1.024    59.342
11.2246      0.034    46.495
11.3879      0.951    33.775
11.5535      1.358    21.535
11.7216      1.752     9.249
11.8921      1.510    -3.414
12.0650      1.268   -16.122
12.2405      0.324   -30.322
12.4186     -0.710   -44.738
12.5992     -2.677   -64.343
12.7825     -4.852   -85.096
12.9684     -6.513  -124.031
13.1570     -8.055  -167.192
13.3484     -5.895   157.985
13.5426     -3.128   124.506
13.7395     -1.061   107.182
13.9394      0.889    91.044
14.1421      2.047    79.234
14.3478      3.055    68.269
14.5565      3.700    59.092
14.7683      4.189    51.033
14.9831      4.562    43.883
15.2010      4.838    37.842
15.4221      5.092    32.130
15.6464      5.302    26.817
15.8740      5.439    21.516
16.1049      5.520    16.270
16.3392      5.355    11.556
16.5768      5.058     7.861
16.8179      4.584     5.595
17.0626      4.127     7.940
17.3107      4.034    12.661
17.5625      4.492    20.083
17.8180      5.990    24.619
18.0771      7.640    26.031
18.3401      9.339    24.237
18.6068     10.739    19.551
18.8775     11.823    14.350
19.1521     12.656     9.402
19.4306     13.269     5.274
19.7133     13.760     3.208
20.0000     14.372     2.791
20.2909     15.187     3.012
20.5860     16.224     3.008
20.8855     17.424     1.822
21.1893     18.609    -1.179
21.4975     19.649    -5.178
21.8102     20.529    -9.498
22.1274     21.273   -13.584
22.4492     21.945   -17.029
22.7758     22.636   -19.709
23.1071     23.432   -21.889
23.4432     24.371   -24.154
23.7841     25.412   -27.096
24.1301     26.471   -30.806
24.4811     27.487   -35.027
24.8372     28.440   -39.393
25.1984     29.342   -43.577
25.5649     30.228   -47.401
25.9368     31.133   -50.874
26.3141     32.076   -54.148
26.6968     33.059   -57.406
27.0851     34.067   -60.772
27.4791     35.082   -64.303
27.8788     36.094   -68.015
28.2843     37.093   -71.905
28.6957     38.070   -75.984
29.1131     39.022   -80.237
29.5365     39.947   -84.618
29.9661     40.850   -89.079
30.4020     41.744   -93.599
30.8442     42.648   -98.201
31.2929     43.566  -102.947
31.7480     44.502  -107.892
32.2098     45.445  -113.041
32.6783     46.390  -118.402
33.1536     47.330  -123.908
33.6359     48.258  -129.507
34.1251     49.167  -135.140
34.6215     50.058  -140.770
35.1250     50.931  -146.368
35.6359     51.785  -151.990
36.1543     52.612  -157.661
36.6802     53.408  -163.408
37.2137     54.164  -169.221
37.7550     54.889  -175.097
38.3041     55.586   178.910
38.8613     56.261   172.745
39.4265     56.905   166.406
40.0000     57.528   159.950
40.5818     58.143   153.407
41.1721     58.762   146.726
41.7710     59.374   139.867
42.3785     59.953   132.911
42.9949     60.498   126.112
43.6203     61.028   119.630
44.2548     61.575   113.436
44.8985     62.137   107.324
45.5515     62.689   101.206
46.2141     63.215    95.148
46.8863     63.718    89.223
47.5683     64.208    83.382
48.2602     64.685    77.518
48.9621     65.139    71.600
49.6743     65.566    65.655
50.3968     65.966    59.692
51.1299     66.343    53.701
51.8736     66.695    47.688
52.6281     67.023    41.675
53.3936     67.335    35.666
54.1702     67.634    29.658
54.9581     67.924    23.673
55.7575     68.208    17.742
56.5685     68.490    11.878
57.3914     68.764     6.110
58.2261     69.018     0.483
59.0730     69.238    -4.922
59.9323     69.420   -10.057
60.8040     69.569   -14.966
61.6884     69.686   -19.829
62.5857     69.766   -24.799
63.4960     69.816   -29.936
64.4196     69.856   -35.253
65.3566     69.908   -40.721
66.3073     69.989   -46.264
67.2717     70.101   -51.772
68.2502     70.229   -57.035
69.2429     70.372   -61.910
70.2501     70.510   -66.431
71.2719     70.620   -70.695
72.3086     70.693   -74.919
73.3603     70.719   -79.282
74.4274     70.720   -83.823
75.5099     70.725   -88.621
76.6083     70.740   -93.460
77.7226     70.801   -98.034
78.8531     70.916  -102.310
80.0000     71.061  -106.250
81.1636     71.203  -109.981
82.3442     71.309  -113.588
83.5419     71.380  -117.235
84.7570     71.421  -121.066
85.9899     71.446  -125.042
87.2406     71.468  -128.980
88.5096     71.512  -132.773
89.7970     71.569  -136.543
91.1031     71.611  -140.396
92.4282     71.617  -144.382
93.7726     71.590  -148.456
95.1366     71.538  -152.356
96.5204     71.521  -155.908
97.9243     71.532  -159.251
99.3486     71.556  -162.402
100.794     71.570  -165.570
102.260     71.570  -168.837
103.747     71.561  -172.260
105.256     71.560  -175.714
106.787     71.573  -179.124
108.340     71.577   177.515
109.916     71.542   174.232
111.515     71.474   171.194
113.137     71.432   168.243
114.783     71.406   165.242
116.452     71.379   162.320
118.146     71.350   159.598
119.865     71.318   156.940
121.608     71.275   154.225
123.377     71.240   151.449
125.171     71.221   148.696
126.992     71.214   145.900
128.839     71.207   143.145
130.713     71.184   140.423
132.615     71.133   137.812
134.543     71.081   135.388
136.500     71.044   132.970
138.486     71.009   130.619
140.500     70.958   128.119
142.544     70.907   125.671
144.617     70.869   123.322
146.721     70.813   121.074
148.855     70.799   118.947
151.020     70.823   116.623
153.217     70.799   114.112
155.445     70.763   111.716
157.706     70.736   108.804
160.000     70.563   106.138
162.327     70.416   104.725
164.688     70.385   103.500
167.084     70.418   101.829
169.514     70.480    99.035
171.980     70.334    96.063
174.481     70.150    94.505
177.019     70.069    93.425
179.594     70.028    91.971
182.206     69.979    90.438
184.856     70.028    88.974
187.545     70.070    87.382
190.273     70.072    85.749
193.041     70.065    83.622
195.849     70.044    81.538
198.697     70.087    79.435
201.587     70.045    77.098
204.520     69.869    74.874
207.494     69.731    73.422
210.512     69.670    72.252
213.574     69.653    70.626
216.681     69.533    69.107
219.833     69.518    68.000
223.030     69.503    66.912
226.274     69.556    65.651
229.565     69.611    63.683
232.905     69.518    61.410
236.292     69.395    59.935
239.729     69.329    58.923
243.216     69.334    57.860
246.754     69.360    55.618
250.343     69.258    53.539
253.984     69.127    52.382
257.678     69.064    51.283
261.426     69.035    49.912
265.229     68.993    48.314
269.087     68.912    46.369
273.001     68.709    45.455
276.972     68.636    44.951
281.000     68.635    43.919
285.088     68.590    42.923
289.234     68.574    41.737
293.441     68.551    40.106
297.709     68.470    38.435
302.040     68.302    36.607
306.433     68.009    35.362
310.890     67.869    35.504
315.412     67.764    34.692
320.000     67.655    34.244
324.655     67.538    33.465
329.377     67.331    33.340
334.168     67.130    33.526
339.028     67.062    34.905
343.959     67.424    34.851
348.962     67.415    32.370
354.038     67.210    32.073
359.188     67.164    32.136
364.412     67.133    31.859
369.713     67.061    31.648
375.090     67.007    32.432
380.546     67.092    32.384
386.081     67.217    31.819
391.697     67.149    31.788
397.394     67.300    31.628
403.175     67.275    31.222
409.039     67.309    31.364
414.989     67.459    31.225
421.025     67.666    30.356
427.149     67.650    28.683
433.362     67.669    28.615
439.665     67.795    27.749
446.060     67.949    26.323
452.548     67.935    24.516
459.131     67.963    22.835
465.809     67.933    20.895
472.584     67.855    19.332
479.458     67.803    17.421
486.432     67.673    15.069
493.507     67.494    13.210
500.686     67.302    11.084
507.968     67.022     9.080
515.357     66.694     7.342
522.853     66.315     5.876
530.458     65.871     4.804
538.174     65.414     4.231
546.002     64.914     4.281
553.943     64.413     4.985
562.001     63.905     6.582
570.175     63.447     8.860
578.469     63.079    12.093
586.883     62.847    15.937
595.419     62.818    20.275
604.080     62.939    24.528
612.866     63.253    28.093
621.780     63.693    30.985
630.824     64.211    32.846
640.000     64.744    33.741
649.309     65.289    33.702
658.753     65.795    32.973
668.335     66.242    31.519
678.056     66.622    29.535
687.919     66.951    27.213
697.925     67.185    24.508
708.077     67.334    21.528
718.376     67.419    18.441
728.825     67.410    15.264
739.426     67.310    12.036
750.181     67.129     8.865
761.093     66.853     5.912
772.163     66.472     3.227
783.394     65.989     0.858
794.789     65.431    -0.916
806.349     64.787    -1.861
818.078     64.071    -1.930
829.977     63.323    -0.707
842.050     62.632     1.850
854.298     62.051     5.817
866.724     61.698    10.825
879.330     61.632    16.171
892.120     61.825    20.936
905.097     62.196    24.484
918.262     62.653    26.684
931.618     63.088    27.512
945.169     63.456    27.256
958.917     63.710    26.168
972.864     63.836    24.687
987.015     63.792    22.956
1001.37     63.607    21.452
1015.94     63.237    20.477
1030.71     62.734    20.474
1045.71     62.141    21.955
1060.92     61.547    25.631
1076.35     61.133    31.368
1092.00     61.103    38.616
1107.89     61.553    45.664
1124.00     62.406    50.878
1140.35     63.436    53.714
1156.94     64.486    53.944
1173.77     65.426    52.306
1190.84     66.202    49.202
1208.16     66.794    44.942
1225.73     67.182    40.109
1243.56     67.384    34.707
1261.65     67.371    29.203
1280.00     67.141    23.631
1298.62     66.690    18.335
1317.51     66.001    13.638
1336.67     65.080    10.094
1356.11     63.958     8.270
1375.84     62.684     9.242
1395.85     61.482    13.546
1416.15     60.713    21.084
1436.75     60.640    29.462
1457.65     61.162    35.289
1478.85     61.877    37.383
1500.36     62.512    36.206
1522.19     62.861    32.726
1544.33     62.875    27.761
1566.79     62.498    22.063
1589.58     61.686    16.300
1612.70     60.391    11.394
1636.16     58.461     8.411
1659.95     55.902    10.378
1684.10     53.029    22.750
1708.60     51.652    47.436
1733.45     52.966    68.885
1758.66     54.905    77.818
1784.24     56.329    79.530
1810.19     57.130    78.706
1836.52     57.460    77.461
1863.24     57.503    76.892
1890.34     57.364    77.082
1917.83     57.140    77.875
1945.73     56.822    79.124
1974.03     56.305    81.326
2002.74     55.728    85.937
2031.87     55.365    93.817
2061.43     55.779   103.186
2091.41     56.954   108.938
2121.83     58.284   109.100
2152.69     59.259   104.281
2184.01     59.678    96.752
2215.77     59.434    87.878
2248.00     58.551    79.509
2280.70     57.039    73.332
2313.87     55.161    70.793
2347.53     53.407    72.328
2381.68     52.042    73.439
2416.32     50.545    70.148
2451.46     47.803    61.428
2487.12     41.566    46.959
2523.30     29.706   -58.943
2560.00     40.993  -148.303
2597.24     44.904  -161.230
2635.01     45.260  -165.338
2673.34     44.921  -154.064
2712.23     46.400  -137.245
2751.68     48.916  -132.380
2791.70     50.311  -135.931
2832.31     50.346  -139.689
2873.50     49.448  -136.756
2915.30     49.073  -124.327
2957.70     50.220  -111.556
3000.72     51.866  -106.133
3044.37     53.058  -105.080
3088.65     53.908  -104.985
3133.58     54.567  -104.936
3179.16     55.044  -105.647
3225.40     55.310  -106.315
3272.31     55.467  -106.470
3319.91     55.595  -106.377
3368.20     55.672  -106.566
3417.19     55.566  -106.552
3466.89     55.438  -105.404
3517.32     55.544  -103.785
3568.48     55.810  -104.391
3620.39     55.808  -106.891
3673.05     55.441  -109.039
3726.47     55.100  -109.432
3780.67     54.980  -110.473
3835.67     54.695  -114.272
3891.46     53.912  -117.674
3948.06     53.059  -117.624
4005.49     52.742  -117.162
4063.75     52.363  -120.714
4122.86     51.387  -122.759
4182.82     50.689  -118.933
4243.66     51.237  -117.300
4305.39     51.633  -122.541
4368.01     51.452  -127.916
4431.55     51.439  -131.338
4496.01     51.415  -137.356
4561.40     50.616  -142.090
4627.75     50.115  -138.925
4695.06     50.843  -137.758
4763.35     51.123  -141.918
4832.64     51.091  -142.215
4902.93     51.867  -143.829
4974.24     52.190  -151.686
5046.60     51.335  -157.340
5120.00     50.530  -155.466
5194.47     50.575  -153.094
5270.03     50.952  -154.495
5346.68     50.756  -159.426
5424.45     49.968  -159.405
5503.35     50.441  -156.845
5583.40     51.044  -164.341
5664.61     50.344  -171.766
5747.01     49.767  -172.796
5830.60     49.778  -175.420
5915.41     49.655  -179.093
6001.45     49.610   179.768
6088.74     50.211   177.813
6177.30     50.493   170.262
6267.15     49.999   167.889
6358.31     50.405   166.347
6450.80     49.999   161.501
6544.62     49.695   164.534
6639.82     49.487   166.410
6736.40     50.329   173.701
6834.38     51.239   165.436
6933.79     49.957   168.600
7034.64     51.395   174.323
7136.96     51.876   168.748
7240.77     51.893   166.950
7346.09     51.953   165.505
7452.94     51.930   162.687
7561.35     51.281   163.135
7671.33     51.100   165.903
7782.91     51.368   171.197
7896.12     51.906   170.675
8010.97     52.170   172.847
8127.49     52.483   173.049
8245.71     52.825   175.195
8365.65     53.172   177.348
8487.33     53.812   176.765
8610.78     53.870   176.751
8736.03     53.652   175.515
8863.09     53.352   179.210
8992.01     52.978  -176.549
9122.80     53.196  -170.854
9255.50     53.806  -167.001
9390.12     54.369  -170.620
9526.70     53.551  -172.528
9665.27     53.957  -170.893
9805.86     53.185  -173.971
9948.49     53.025  -175.395
10093.2     52.470  -171.849
10240.0     52.844  -169.674
10388.9     53.276  -173.132
10540.1     53.579  -173.743
10693.4     53.440   178.830
10848.9     52.509   175.540
11006.7     51.331   172.949
11166.8     50.027   171.469
11329.2     48.217   174.613
11494.0     47.282   174.027
11661.2     45.854   172.369
11830.8     43.566   171.804
12002.9     43.600   169.582
12177.5     42.232   158.832
12354.6     39.824   149.544
12534.3     38.545   146.883
12716.6     39.863   140.337
12901.6     35.908   131.402
13089.2     35.735   170.043
13279.6     38.170   176.655
13472.8     37.605  -176.710
13668.8     36.406  -165.568
13867.6     35.421  -146.171
14069.3     33.458  -128.431
14273.9     31.746  -115.848
14481.5     30.422  -110.209
14692.2     32.271  -149.189
14905.9     33.149  -171.544
15122.7     36.744  -178.533
15342.7     35.232  -177.598
15565.8     32.587  -137.551
15792.2     35.653   -91.886
16021.9     37.378   -77.332
16255.0     36.894   -53.447
16491.4     36.305   -37.216
16731.3     34.316   -17.497
16974.7     32.099    -6.548
17221.6     30.021    38.424
17472.1     31.985    43.036
17726.2     30.178    37.723
17984.0     30.318    71.688
18245.6     34.669    77.636
18511.0     35.184    80.349
18780.2     37.342    91.595
19053.4     37.891    93.592
19330.5     38.913   107.201
19611.7     39.825   104.732
19897.0     39.260   104.398
20186.4     38.864   111.295
20480.0     38.468   118.191
20777.9     38.072   125.088
21080.1     37.676   131.985
21386.7     37.280   138.882
21697.8     36.884   145.778
22013.4     36.488   152.675
22333.6     36.092   159.572
22658.4     35.697   166.469
22988.0     35.301   173.366
23322.4     34.905  -179.738
23661.6     34.509  -172.841
24005.8     34.113  -165.944
24355.0     33.717  -159.047
24709.2     33.321  -152.151
25068.6     32.925  -145.254
25433.2     32.530  -138.357
25803.2     32.134  -131.460
26178.5     31.738  -124.563
26559.3     31.342  -117.667
26945.6     30.946  -110.770
27337.5     30.550  -103.873
27735.2     30.154   -96.976
28138.6     29.758   -90.080
28547.9     29.362   -83.183
28963.1     28.967   -76.286
29384.4     28.571   -69.389
29811.8     28.175   -62.493
30245.4     27.779   -55.596
30685.3     27.383   -48.699
31131.7     26.987   -41.802
31584.5     26.591   -34.905
32043.9     26.195   -28.009
32510.0     25.800   -21.112
32982.8     25.404   -14.215
33462.6     25.008    -7.318
33949.3     24.612    -0.422
34443.1     24.216     6.475
34944.1     23.820    13.372
35452.4     23.424    20.269
35968.0     23.028    27.165
36491.2     22.632    34.062
37022.0     22.237    40.959
37560.5     21.841    47.856
38106.8     21.445    54.753
38661.1     21.049    61.649
39223.4     20.653    68.546
39793.9     20.257    75.443
