Freq[Hz]     dBSPL  Phase[Deg]
5.00000    -28.160    15.004
5.07273    -27.190    19.990
5.14651    -26.305    23.545
5.22137    -25.661    23.047
5.29732    -25.018    22.548
5.37437    -24.374    22.049
5.45254    -23.730    21.580
5.53185    -23.378    20.413
5.61231    -23.335    18.504
5.69394    -23.291    16.595
5.77676    -23.247    14.710
5.86079    -23.218    12.853
5.94604    -24.084    11.988
6.03252    -24.949    11.123
6.12027    -25.815    10.284
6.20929    -26.681     9.455
6.29961    -28.148    23.566
6.39124    -29.749    40.989
6.48420    -31.351    58.449
6.57851    -32.953    75.910
6.67420    -30.906    86.277
6.77128    -28.267    95.509
6.86977    -25.630   104.762
6.96969    -23.162   112.598
7.07107    -21.983   109.647
7.17392    -20.807   106.732
7.27827    -19.631   103.817
7.38413    -19.030    99.864
7.49154    -18.875    95.141
7.60050    -18.722    90.424
7.71105    -18.817    85.585
7.82321    -20.007    80.235
7.93701    -21.200    74.894
8.05245    -22.392    69.552
8.16958    -27.456     0.888
8.28841    -32.666   -70.137
8.40896    -37.876  -141.163
8.53128    -32.467  -151.144
8.65537    -25.688  -153.251
8.78126    -18.912  -155.356
8.90899    -16.875  -162.932
9.03857    -15.148  -170.865
9.17004    -13.567  -179.047
9.30342    -13.087   170.861
9.43874    -12.610   160.764
9.57603    -12.526   148.533
9.71532    -13.031   133.079
9.85663    -13.542   117.592
10.0000    -13.843    91.673
10.1455    -14.087    62.829
10.2930    -13.725    34.864
10.4427    -11.659     9.472
10.5946     -9.600   -15.997
10.7487     -7.765   -32.880
10.9051     -5.978   -48.135
11.0637     -4.552   -61.913
11.2246     -3.505   -74.195
11.3879     -2.597   -86.345
11.5535     -2.195   -97.995
11.7216     -1.803  -109.683
11.8921     -2.043  -121.720
12.0650     -2.282  -133.790
12.2405     -3.222  -147.319
12.4186     -4.251  -161.052
12.5992     -6.213  -179.936
12.7825     -8.383   160.039
12.9684    -10.041   121.872
13.1570    -11.581    79.485
13.3484     -9.422    45.459
13.5426     -6.659    12.785
13.7395     -4.601    -3.725
13.9394     -2.662   -19.051
14.1421     -1.518   -30.048
14.3478     -0.531   -40.218
14.5565      0.091   -48.613
14.7683      0.555   -55.908
14.9831      0.900   -62.332
15.2010      1.145   -67.668
15.4221      1.368   -72.715
15.6464      1.546   -77.405
15.8740      1.652   -82.114
16.1049      1.705   -86.813
16.3392      1.513   -91.025
16.5768      1.194   -94.249
16.8179      0.701   -96.077
17.0626      0.233   -93.341
17.3107      0.134   -88.251
17.5625      0.593   -80.484
17.8180      2.098   -75.622
18.0771      3.768   -73.901
18.3401      5.493   -75.391
18.6068      6.928   -79.769
18.8775      8.055   -84.656
19.1521      8.942   -89.272
19.4306      9.618   -93.037
19.7133     10.180   -94.704
20.0000     10.871   -94.680
20.2909     11.772   -93.965
20.5860     12.901   -93.417
20.8855     14.197   -93.986
21.1893     15.480   -96.296
21.4975     16.618   -99.526
21.8102     17.594  -103.007
22.1274     18.432  -106.187
22.4492     19.192  -108.665
22.7758     19.964  -110.327
23.1071     20.832  -111.450
23.4432     21.833  -112.633
23.7841     22.929  -114.483
24.1301     24.033  -117.104
24.4811     25.086  -120.251
24.8372     26.070  -123.569
25.1984     26.997  -126.735
25.5649     27.907  -129.578
25.9368     28.833  -132.104
26.3141     29.799  -134.461
26.6968     30.805  -136.823
27.0851     31.838  -139.307
27.4791     32.882  -141.959
27.8788     33.924  -144.784
28.2843     34.956  -147.773
28.6957     35.964  -150.923
29.1131     36.947  -154.221
29.5365     37.899  -157.621
29.9661     38.824  -161.076
30.4020     39.731  -164.578
30.8442     40.640  -168.165
31.2929     41.553  -171.914
31.7480     42.474  -175.907
32.2098     43.394   179.840
32.6783     44.313   175.299
33.1536     45.222   170.522
33.6359     46.121   165.569
34.1251     47.008   160.487
34.6215     47.885   155.341
35.1250     48.754   150.166
35.6359     49.617   144.940
36.1543     50.469   139.659
36.6802     51.301   134.321
37.2137     52.106   128.966
37.7550     52.887   123.610
38.3041     53.645   118.215
38.8613     54.380   112.730
39.4265     55.082   107.142
40.0000     55.756   101.499
40.5818     56.411    95.806
41.1721     57.059    89.985
41.7710     57.690    83.970
42.3785     58.280    77.823
42.9949     58.830    71.778
43.6203     59.365    65.996
44.2548     59.916    60.455
44.8985     60.486    54.958
45.5515     61.050    49.435
46.2141     61.592    43.968
46.8863     62.114    38.640
47.5683     62.624    33.407
48.2602     63.120    28.158
48.9621     63.589    22.853
49.6743     64.029    17.505
50.3968     64.441    12.111
51.1299     64.831     6.653
51.8736     65.198     1.141
52.6281     65.549    -4.391
53.3936     65.890    -9.920
54.1702     66.224   -15.426
54.9581     66.553   -20.864
55.7575     66.877   -26.200
56.5685     67.195   -31.426
57.3914     67.497   -36.529
58.2261     67.772   -41.493
59.0730     68.007   -46.262
59.9323     68.200   -50.805
60.8040     68.363   -55.166
61.6884     68.498   -59.507
62.5857     68.603   -63.952
63.4960     68.683   -68.528
64.4196     68.750   -73.234
65.3566     68.825   -78.046
66.3073     68.918   -82.921
67.2717     69.030   -87.791
68.2502     69.153   -92.488
69.2429     69.288   -96.887
70.2501     69.426  -101.003
71.2719     69.550  -104.894
72.3086     69.647  -108.720
73.3603     69.703  -112.620
74.4274     69.732  -116.626
75.5099     69.755  -120.852
76.6083     69.777  -125.141
77.7226     69.839  -129.237
78.8531     69.959  -133.121
80.0000     70.121  -136.709
81.1636     70.296  -140.055
82.3442     70.441  -143.178
83.5419     70.544  -146.230
84.7570     70.599  -149.412
85.9899     70.617  -152.787
87.2406     70.623  -156.260
88.5096     70.657  -159.738
89.7970     70.724  -163.276
91.1031     70.800  -166.857
92.4282     70.852  -170.440
93.7726     70.863  -173.969
95.1366     70.832  -177.262
96.5204     70.818   179.745
97.9243     70.827   176.853
99.3486     70.857   174.069
100.794     70.890   171.266
102.260     70.914   168.429
103.747     70.926   165.505
105.256     70.934   162.555
106.787     70.948   159.591
108.340     70.956   156.600
109.916     70.935   153.658
111.515     70.891   150.999
113.137     70.874   148.494
114.783     70.865   145.987
116.452     70.845   143.544
118.146     70.819   141.238
119.865     70.795   138.928
121.608     70.772   136.554
123.377     70.769   134.203
125.171     70.777   131.930
126.992     70.783   129.712
128.839     70.773   127.482
130.713     70.741   125.163
132.615     70.695   122.907
134.543     70.658   120.829
136.500     70.637   118.818
138.486     70.612   116.917
140.500     70.566   114.809
142.544     70.530   112.725
144.617     70.515   110.796
146.721     70.472   109.074
148.855     70.459   107.438
151.020     70.482   105.505
153.217     70.470   103.363
155.445     70.449   101.394
157.706     70.429    98.964
160.000     70.260    96.697
162.327     70.122    95.657
164.688     70.104    94.902
167.084     70.143    93.721
169.514     70.207    91.338
171.980     70.066    88.736
174.481     69.895    87.579
177.019     69.830    86.941
179.594     69.801    85.991
182.206     69.751    85.008
184.856     69.787    83.979
187.545     69.828    82.708
190.273     69.850    81.442
193.041     69.860    79.796
195.849     69.843    78.241
198.697     69.884    76.598
201.587     69.844    74.676
204.520     69.675    72.895
207.494     69.546    71.906
210.512     69.492    71.210
213.574     69.479    70.053
216.681     69.362    68.976
219.833     69.353    68.320
223.030     69.348    67.705
226.274     69.405    66.913
229.565     69.466    65.389
232.905     69.390    63.576
236.292     69.279    62.630
239.729     69.215    62.102
243.216     69.236    61.467
246.754     69.287    59.786
250.343     69.185    58.297
253.984     69.057    57.586
257.678     69.015    56.964
261.426     69.006    56.131
265.229     68.976    55.104
269.087     68.904    53.618
273.001     68.736    53.205
276.972     68.672    53.365
281.000     68.674    52.719
285.088     68.663    52.134
289.234     68.678    51.404
293.441     68.694    50.267
297.709     68.641    49.093
302.040     68.516    47.687
306.433     68.258    46.926
310.890     68.152    47.411
315.412     68.100    46.977
320.000     68.032    46.984
324.655     67.924    46.507
329.377     67.770    46.366
334.168     67.641    47.024
339.028     67.565    48.637
343.959     67.965    48.672
348.962     67.955    46.418
354.038     67.754    46.140
359.188     67.705    46.387
364.412     67.650    46.249
369.713     67.544    46.235
375.090     67.448    47.149
380.546     67.501    47.513
386.081     67.543    47.325
391.697     67.428    47.682
397.394     67.509    48.045
403.175     67.435    48.224
409.039     67.418    49.055
414.989     67.518    49.800
421.025     67.679    49.702
427.149     67.637    49.085
433.362     67.614    49.949
439.665     67.722    50.134
446.060     67.882    49.712
452.548     67.886    49.040
459.131     67.951    48.615
465.809     67.940    47.909
472.584     67.931    47.478
479.458     67.969    46.791
486.432     67.937    45.727
493.507     67.896    45.037
500.686     67.857    44.066
507.968     67.755    43.091
515.357     67.654    42.275
522.853     67.523    41.553
530.458     67.382    40.972
538.174     67.235    40.527
546.002     67.084    40.318
553.943     66.914    40.154
562.001     66.749    40.126
570.175     66.578    40.218
578.469     66.401    40.506
586.883     66.230    40.833
595.419     66.053    41.351
604.080     65.887    41.936
612.866     65.727    42.712
621.780     65.576    43.578
630.824     65.432    44.622
640.000     65.304    45.705
649.309     65.193    47.029
658.753     65.096    48.444
668.335     65.029    49.963
678.056     64.996    51.579
687.919     64.997    53.269
697.925     65.042    54.973
708.077     65.120    56.638
718.376     65.250    58.106
728.825     65.404    59.451
739.426     65.600    60.450
750.181     65.817    61.183
761.093     66.036    61.563
772.163     66.263    61.539
783.394     66.468    61.303
794.789     66.637    60.611
806.349     66.780    59.681
818.078     66.869    58.524
829.977     66.913    57.200
842.050     66.893    55.776
854.298     66.815    54.280
866.724     66.675    52.862
879.330     66.469    51.571
892.120     66.208    50.499
905.097     65.885    49.741
918.262     65.518    49.251
931.618     65.113    49.307
945.169     64.682    49.729
958.917     64.245    50.650
972.864     63.815    52.187
987.015     63.396    54.167
1001.37     62.998    56.684
1015.94     62.641    59.655
1030.71     62.336    63.280
1045.71     62.108    67.448
1060.92     61.999    72.084
1076.35     62.063    77.012
1092.00     62.321    81.831
1107.89     62.763    85.944
1124.00     63.355    88.921
1140.35     64.017    90.610
1156.94     64.688    90.837
1173.77     65.290    89.765
1190.84     65.788    87.548
1208.16     66.137    84.475
1225.73     66.315    80.807
1243.56     66.318    76.750
1261.65     66.121    72.638
1280.00     65.727    68.696
1298.62     65.133    65.333
1317.51     64.344    62.844
1336.67     63.433    61.771
1356.11     62.455    62.327
1375.84     61.525    64.588
1395.85     60.765    67.997
1416.15     60.158    71.590
1436.75     59.638    74.621
1457.65     59.030    77.061
1478.85     58.143    79.887
1500.36     56.953    85.211
1522.19     55.691    95.831
1544.33     55.279   112.614
1566.79     56.403   129.029
1589.58     58.327   137.735
1612.70     60.171   139.222
1636.16     61.570   136.494
1659.95     62.469   131.526
1684.10     62.857   125.672
1708.60     62.778   119.813
1733.45     62.255   114.888
1758.66     61.353   112.069
1784.24     60.195   112.629
1810.19     59.101   117.479
1836.52     58.556   125.440
1863.24     58.727   133.064
1890.34     59.277   137.552
1917.83     59.806   138.814
1945.73     60.036   138.023
1974.03     59.962   136.622
2002.74     59.602   135.686
2031.87     59.040   135.993
2061.43     58.408   137.992
2091.41     57.858   141.456
2121.83     57.482   145.555
2152.69     57.258   149.119
2184.01     57.046   151.588
2215.77     56.642   153.030
2248.00     55.881   154.605
2280.70     54.666   158.670
2313.87     53.263   168.603
2347.53     52.674  -174.529
2381.68     53.652  -158.410
2416.32     55.340  -150.035
2451.46     56.683  -147.885
2487.12     57.472  -148.428
2523.30     57.758  -148.634
2560.00     57.784  -147.007
2597.24     57.875  -143.396
2635.01     58.235  -139.320
2673.34     58.778  -136.697
2712.23     59.274  -135.941
2751.68     59.541  -136.036
2791.70     59.539  -135.677
2832.31     59.447  -133.642
2873.50     59.533  -130.089
2915.30     59.967  -126.842
2957.70     60.565  -125.858
3000.72     61.011  -127.336
3044.37     61.070  -129.730
3088.65     60.773  -130.987
3133.58     60.402  -129.666
3179.16     60.354  -126.709
3225.40     60.647  -124.986
3272.31     60.930  -125.806
3319.91     60.902  -127.766
3368.20     60.599  -128.786
3417.19     60.327  -128.024
3466.89     60.281  -127.021
3517.32     60.306  -127.401
3568.48     60.162  -128.595
3620.39     59.880  -128.705
3673.05     59.804  -127.821
3726.47     59.960  -128.332
3780.67     59.985  -131.010
3835.67     59.652  -133.593
3891.46     59.269  -133.912
3948.06     59.232  -133.574
4005.49     59.316  -135.204
4063.75     59.155  -137.186
4122.86     59.037  -136.952
4182.82     59.432  -136.957
4243.66     59.951  -140.455
4305.39     60.085  -145.382
4368.01     60.020  -148.676
4431.55     60.138  -151.128
4496.01     60.276  -154.575
4561.40     60.280  -157.501
4627.75     60.375  -159.397
4695.06     60.555  -161.920
4763.35     60.601  -164.174
4832.64     60.708  -164.862
4902.93     61.113  -165.793
4974.24     61.538  -168.696
5046.60     61.648  -172.537
5120.00     61.465  -174.279
5194.47     61.597  -173.497
5270.03     62.108  -175.375
5346.68     62.113  -179.404
5424.45     61.888  -179.823
5503.35     62.199   179.422
5583.40     62.111   175.392
5664.61     61.612   175.318
5747.01     61.790   176.227
5830.60     61.732   172.778
5915.41     61.045   172.313
6001.45     60.815   175.460
6088.74     60.937   176.519
6177.30     60.848   176.935
6267.15     60.932   178.766
6358.31     61.199   177.966
6450.80     60.962   177.151
6544.62     61.053   179.168
6639.82     61.273   177.971
6736.40     61.181   178.019
6834.38     61.333   177.762
6933.79     61.247   177.180
7034.64     61.290   177.372
7136.96     61.157   176.917
7240.77     61.009   178.629
7346.09     61.122  -179.653
7452.94     61.191  -178.830
7561.35     61.239  -176.806
7671.33     61.412  -175.801
7782.91     61.449  -173.659
7896.12     61.670  -172.207
8010.97     61.707  -169.861
8127.49     62.016  -167.781
8245.71     62.268  -165.112
8365.65     62.808  -164.304
8487.33     63.110  -163.898
8610.78     63.487  -165.164
8736.03     63.420  -166.014
8863.09     63.469  -166.591
8992.01     63.225  -165.732
9122.80     63.527  -164.888
9255.50     63.460  -165.148
9390.12     63.788  -165.593
9526.70     63.702  -166.575
9665.27     63.975  -168.648
9805.86     63.724  -169.730
9948.49     64.011  -170.973
10093.2     64.040  -172.538
10240.0     64.525  -176.782
10388.9     64.283   178.014
10540.1     63.932   172.295
10693.4     63.351   170.433
10848.9     62.805   167.676
11006.7     62.359   166.742
11166.8     61.902   164.843
11329.2     61.434   164.004
11494.0     60.716   162.202
11661.2     60.150   161.311
11830.8     59.469   161.659
12002.9     58.647   158.237
12177.5     57.553   157.618
12354.6     55.937   159.536
12534.3     54.668   162.185
12716.6     53.968   165.199
12901.6     52.686   167.249
13089.2     51.277   169.353
13279.6     49.561   172.850
13472.8     47.975  -177.414
13668.8     47.199  -167.309
13867.6     46.612  -160.830
14069.3     46.069  -155.636
14273.9     45.075  -151.374
14481.5     44.478  -146.947
14692.2     43.293  -147.381
14905.9     41.640  -147.782
15122.7     38.961  -148.818
15342.7     34.723  -159.300
15565.8     28.156   160.799
15792.2     31.177    90.138
16021.9     37.616    63.144
16255.0     41.857    50.826
16491.4     43.556    43.305
16731.3     44.956    41.221
16974.7     45.830    39.741
17221.6     46.734    42.674
17472.1     47.970    45.588
17726.2     49.401    43.264
17984.0     49.415    38.822
18245.6     49.144    45.046
18511.0     50.261    52.722
18780.2     51.705    53.667
19053.4     52.760    51.278
19330.5     53.415    46.555
19611.7     53.660    41.940
19897.0     53.868    37.223
20186.4     53.471    33.769
20480.0     53.075    30.314
20777.9     52.678    26.860
21080.1     52.282    23.406
21386.7     51.885    19.951
21697.8     51.488    16.497
22013.4     51.092    13.043
22333.6     50.695     9.588
22658.4     50.299     6.134
22988.0     49.902     2.680
23322.4     49.505    -0.775
23661.6     49.109    -4.229
24005.8     48.712    -7.683
24355.0     48.316   -11.138
24709.2     47.919   -14.592
25068.6     47.522   -18.046
25433.2     47.126   -21.500
25803.2     46.729   -24.955
26178.5     46.333   -28.409
26559.3     45.936   -31.863
26945.6     45.539   -35.318
27337.5     45.143   -38.772
27735.2     44.746   -42.226
28138.6     44.350   -45.681
28547.9     43.953   -49.135
28963.1     43.556   -52.589
29384.4     43.160   -56.044
29811.8     42.763   -59.498
30245.4     42.367   -62.952
30685.3     41.970   -66.407
31131.7     41.573   -69.861
31584.5     41.177   -73.315
32043.9     40.780   -76.770
32510.0     40.384   -80.224
32982.8     39.987   -83.678
33462.6     39.590   -87.133
33949.3     39.194   -90.587
34443.1     38.797   -94.041
34944.1     38.401   -97.496
35452.4     38.004  -100.950
35968.0     37.607  -104.404
36491.2     37.211  -107.859
37022.0     36.814  -111.313
37560.5     36.418  -114.767
38106.8     36.021  -118.222
38661.1     35.624  -121.676
39223.4     35.228  -125.130
39793.9     34.831  -128.584
